MLII,V5,Sample
-0.145,-0.065,0
-0.145,-0.065,1
-0.145,-0.065,2
-0.145,-0.065,3
-0.145,-0.065,4
-0.145,-0.065,5
-0.145,-0.065,6
-0.145,-0.065,7
-0.12,-0.08,8
-0.135,-0.08,9
-0.145,-0.085,10
-0.15,-0.085,11
-0.16,-0.075,12
-0.155,-0.07,13
-0.16,-0.07,14
-0.175,-0.065,15
-0.18,-0.055,16
-0.185,-0.05,17
-0.17,-0.05,18
-0.155,-0.04,19
-0.175,-0.04,20
-0.18,-0.055,21
-0.19,-0.075,22
-0.18,-0.08,23
-0.155,-0.085,24
-0.135,-0.07,25
-0.155,-0.08,26
-0.19,-0.08,27
-0.205,-0.09,28
-0.235,-0.095,29
-0.225,-0.09,30
-0.245,-0.095,31
-0.25,-0.11,32
-0.26,-0.12,33
-0.275,-0.145,34
-0.275,-0.135,35
-0.275,-0.105,36
-0.265,-0.095,37
-0.255,-0.105,38
-0.265,-0.12,39
-0.275,-0.135,40
-0.29,-0.125,41
-0.29,-0.125,42
-0.29,-0.115,43
-0.29,-0.115,44
-0.285,-0.125,45
-0.295,-0.14,46
-0.305,-0.14,47
-0.285,-0.13,48
-0.275,-0.125,49
-0.275,-0.14,50
-0.28,-0.145,51
-0.285,-0.15,52
-0.305,-0.15,53
-0.29,-0.13,54
-0.3,-0.115,55
-0.28,-0.125,56
-0.29,-0.135,57
-0.3,-0.16,58
-0.315,-0.195,59
-0.32,-0.2,60
-0.335,-0.205,61
-0.36,-0.225,62
-0.385,-0.255,63
-0.385,-0.3,64
-0.405,-0.29,65
-0.455,-0.235,66
-0.485,-0.13,67
-0.485,-0.035,68
-0.425,0.05,69
-0.33,0.12,70
-0.22,0.2,71
-0.07,0.31,72
0.12,0.435,73
0.375,0.535,74
0.62,0.58,75
0.78,0.475,76
0.84,0.21,77
0.765,-0.085,78
0.52,-0.23,79
0.17,-0.25,80
-0.165,-0.215,81
-0.365,-0.18,82
-0.435,-0.185,83
-0.425,-0.16,84
-0.37,-0.15,85
-0.33,-0.15,86
-0.325,-0.18,87
-0.335,-0.18,88
-0.345,-0.16,89
-0.33,-0.165,90
-0.325,-0.17,91
-0.315,-0.165,92
-0.31,-0.185,93
-0.32,-0.185,94
-0.335,-0.185,95
-0.34,-0.17,96
-0.325,-0.16,97
-0.345,-0.155,98
-0.335,-0.175,99
-0.33,-0.195,100
-0.335,-0.185,101
-0.33,-0.185,102
-0.325,-0.175,103
-0.33,-0.175,104
-0.33,-0.195,105
-0.345,-0.19,106
-0.355,-0.18,107
-0.335,-0.165,108
-0.325,-0.17,109
-0.305,-0.17,110
-0.32,-0.17,111
-0.32,-0.19,112
-0.33,-0.185,113
-0.34,-0.18,114
-0.335,-0.17,115
-0.34,-0.175,116
-0.345,-0.19,117
-0.355,-0.2,118
-0.355,-0.195,119
-0.34,-0.185,120
-0.33,-0.17,121
-0.33,-0.17,122
-0.33,-0.185,123
-0.34,-0.195,124
-0.35,-0.175,125
-0.325,-0.2,126
-0.325,-0.185,127
-0.33,-0.18,128
-0.33,-0.185,129
-0.335,-0.205,130
-0.335,-0.19,131
-0.34,-0.18,132
-0.33,-0.185,133
-0.34,-0.2,134
-0.35,-0.215,135
-0.355,-0.205,136
-0.35,-0.21,137
-0.345,-0.2,138
-0.33,-0.185,139
-0.32,-0.205,140
-0.335,-0.2,141
-0.33,-0.21,142
-0.345,-0.205,143
-0.33,-0.185,144
-0.335,-0.185,145
-0.335,-0.2,146
-0.345,-0.215,147
-0.345,-0.225,148
-0.355,-0.22,149
-0.34,-0.2,150
-0.34,-0.2,151
-0.335,-0.215,152
-0.33,-0.225,153
-0.35,-0.235,154
-0.35,-0.245,155
-0.345,-0.24,156
-0.335,-0.24,157
-0.335,-0.24,158
-0.335,-0.245,159
-0.35,-0.26,160
-0.355,-0.26,161
-0.355,-0.265,162
-0.345,-0.265,163
-0.345,-0.28,164
-0.335,-0.285,165
-0.35,-0.295,166
-0.36,-0.295,167
-0.36,-0.3,168
-0.36,-0.29,169
-0.365,-0.3,170
-0.36,-0.315,171
-0.37,-0.315,172
-0.385,-0.315,173
-0.37,-0.315,174
-0.36,-0.31,175
-0.355,-0.31,176
-0.36,-0.325,177
-0.375,-0.33,178
-0.375,-0.325,179
-0.365,-0.315,180
-0.365,-0.305,181
-0.36,-0.305,182
-0.36,-0.29,183
-0.365,-0.29,184
-0.37,-0.275,185
-0.355,-0.27,186
-0.33,-0.245,187
-0.325,-0.24,188
-0.325,-0.25,189
-0.335,-0.25,190
-0.34,-0.235,191
-0.315,-0.22,192
-0.3,-0.195,193
-0.3,-0.19,194
-0.29,-0.19,195
-0.295,-0.19,196
-0.29,-0.18,197
-0.285,-0.16,198
-0.275,-0.145,199
-0.255,-0.15,200
-0.25,-0.16,201
-0.25,-0.16,202
-0.265,-0.155,203
-0.255,-0.145,204
-0.245,-0.14,205
-0.23,-0.16,206
-0.245,-0.15,207
-0.245,-0.175,208
-0.255,-0.17,209
-0.255,-0.16,210
-0.24,-0.16,211
-0.25,-0.15,212
-0.255,-0.155,213
-0.245,-0.16,214
-0.255,-0.17,215
-0.25,-0.155,216
-0.25,-0.155,217
-0.265,-0.15,218
-0.26,-0.165,219
-0.26,-0.175,220
-0.265,-0.165,221
-0.27,-0.165,222
-0.265,-0.16,223
-0.26,-0.16,224
-0.275,-0.18,225
-0.28,-0.175,226
-0.29,-0.185,227
-0.275,-0.165,228
-0.27,-0.15,229
-0.26,-0.15,230
-0.28,-0.17,231
-0.28,-0.185,232
-0.285,-0.195,233
-0.275,-0.19,234
-0.275,-0.19,235
-0.265,-0.185,236
-0.27,-0.19,237
-0.285,-0.21,238
-0.29,-0.195,239
-0.28,-0.19,240
-0.275,-0.18,241
-0.285,-0.205,242
-0.28,-0.215,243
-0.3,-0.225,244
-0.3,-0.21,245
-0.305,-0.205,246
-0.295,-0.195,247
-0.3,-0.2,248
-0.31,-0.195,249
-0.31,-0.21,250
-0.305,-0.215,251
-0.295,-0.205,252
-0.285,-0.185,253
-0.285,-0.195,254
-0.29,-0.195,255
-0.295,-0.22,256
-0.31,-0.22,257
-0.29,-0.21,258
-0.295,-0.215,259
-0.3,-0.22,260
-0.305,-0.22,261
-0.31,-0.225,262
-0.325,-0.21,263
-0.31,-0.2,264
-0.3,-0.21,265
-0.29,-0.225,266
-0.31,-0.23,267
-0.325,-0.225,268
-0.33,-0.22,269
-0.315,-0.23,270
-0.3,-0.21,271
-0.305,-0.215,272
-0.31,-0.215,273
-0.32,-0.23,274
-0.33,-0.215,275
-0.325,-0.22,276
-0.315,-0.205,277
-0.31,-0.205,278
-0.305,-0.21,279
-0.305,-0.215,280
-0.31,-0.225,281
-0.3,-0.215,282
-0.305,-0.215,283
-0.29,-0.215,284
-0.3,-0.225,285
-0.3,-0.225,286
-0.305,-0.225,287
-0.305,-0.205,288
-0.29,-0.195,289
-0.28,-0.21,290
-0.295,-0.21,291
-0.305,-0.215,292
-0.315,-0.235,293
-0.305,-0.23,294
-0.295,-0.22,295
-0.29,-0.22,296
-0.28,-0.23,297
-0.27,-0.225,298
-0.275,-0.23,299
-0.275,-0.215,300
-0.27,-0.195,301
-0.25,-0.195,302
-0.25,-0.19,303
-0.255,-0.2,304
-0.225,-0.195,305
-0.22,-0.18,306
-0.205,-0.17,307
-0.2,-0.18,308
-0.205,-0.175,309
-0.215,-0.195,310
-0.23,-0.195,311
-0.22,-0.17,312
-0.225,-0.175,313
-0.225,-0.175,314
-0.225,-0.18,315
-0.23,-0.185,316
-0.235,-0.185,317
-0.24,-0.175,318
-0.235,-0.175,319
-0.22,-0.175,320
-0.21,-0.19,321
-0.205,-0.205,322
-0.245,-0.2,323
-0.285,-0.205,324
-0.285,-0.205,325
-0.3,-0.215,326
-0.31,-0.215,327
-0.33,-0.225,328
-0.33,-0.215,329
-0.325,-0.21,330
-0.315,-0.2,331
-0.32,-0.215,332
-0.315,-0.225,333
-0.325,-0.245,334
-0.34,-0.245,335
-0.345,-0.25,336
-0.34,-0.225,337
-0.34,-0.23,338
-0.35,-0.235,339
-0.345,-0.24,340
-0.355,-0.235,341
-0.33,-0.235,342
-0.335,-0.22,343
-0.33,-0.23,344
-0.32,-0.24,345
-0.345,-0.24,346
-0.355,-0.245,347
-0.34,-0.225,348
-0.33,-0.225,349
-0.325,-0.235,350
-0.33,-0.25,351
-0.35,-0.27,352
-0.365,-0.28,353
-0.36,-0.29,354
-0.38,-0.3,355
-0.425,-0.33,356
-0.445,-0.36,357
-0.475,-0.355,358
-0.51,-0.305,359
-0.535,-0.205,360
-0.505,-0.08,361
-0.415,0.015,362
-0.3,0.065,363
-0.16,0.115,364
-0.015,0.19,365
0.235,0.3,366
0.49,0.41,367
0.72,0.495,368
0.875,0.485,369
0.94,0.36,370
0.905,0.105,371
0.755,-0.165,372
0.49,-0.35,373
0.165,-0.45,374
-0.11,-0.47,375
-0.27,-0.45,376
-0.39,-0.395,377
-0.45,-0.345,378
-0.475,-0.31,379
-0.455,-0.295,380
-0.425,-0.285,381
-0.39,-0.295,382
-0.39,-0.295,383
-0.385,-0.28,384
-0.39,-0.285,385
-0.38,-0.285,386
-0.38,-0.285,387
-0.38,-0.29,388
-0.395,-0.275,389
-0.385,-0.275,390
-0.385,-0.275,391
-0.385,-0.27,392
-0.375,-0.285,393
-0.395,-0.295,394
-0.41,-0.29,395
-0.41,-0.275,396
-0.4,-0.265,397
-0.395,-0.265,398
-0.39,-0.275,399
-0.405,-0.295,400
-0.395,-0.29,401
-0.385,-0.285,402
-0.375,-0.27,403
-0.39,-0.265,404
-0.39,-0.275,405
-0.405,-0.28,406
-0.41,-0.28,407
-0.41,-0.27,408
-0.39,-0.265,409
-0.39,-0.27,410
-0.395,-0.27,411
-0.405,-0.28,412
-0.415,-0.27,413
-0.4,-0.265,414
-0.41,-0.265,415
-0.405,-0.265,416
-0.41,-0.27,417
-0.415,-0.285,418
-0.41,-0.285,419
-0.4,-0.265,420
-0.4,-0.265,421
-0.395,-0.255,422
-0.39,-0.275,423
-0.405,-0.275,424
-0.41,-0.28,425
-0.39,-0.27,426
-0.39,-0.265,427
-0.385,-0.275,428
-0.385,-0.285,429
-0.41,-0.28,430
-0.405,-0.28,431
-0.395,-0.275,432
-0.39,-0.275,433
-0.375,-0.275,434
-0.39,-0.285,435
-0.395,-0.295,436
-0.41,-0.295,437
-0.4,-0.275,438
-0.39,-0.275,439
-0.39,-0.285,440
-0.385,-0.29,441
-0.405,-0.315,442
-0.415,-0.315,443
-0.415,-0.305,444
-0.4,-0.29,445
-0.395,-0.31,446
-0.405,-0.32,447
-0.415,-0.32,448
-0.42,-0.335,449
-0.42,-0.33,450
-0.41,-0.325,451
-0.415,-0.345,452
-0.425,-0.35,453
-0.42,-0.365,454
-0.435,-0.37,455
-0.43,-0.355,456
-0.43,-0.36,457
-0.42,-0.37,458
-0.43,-0.39,459
-0.45,-0.395,460
-0.455,-0.4,461
-0.45,-0.39,462
-0.435,-0.385,463
-0.445,-0.39,464
-0.45,-0.4,465
-0.455,-0.41,466
-0.47,-0.42,467
-0.46,-0.405,468
-0.455,-0.41,469
-0.45,-0.41,470
-0.455,-0.4,471
-0.47,-0.405,472
-0.475,-0.39,473
-0.46,-0.385,474
-0.45,-0.365,475
-0.445,-0.355,476
-0.44,-0.345,477
-0.435,-0.355,478
-0.44,-0.33,479
-0.41,-0.295,480
-0.395,-0.275,481
-0.37,-0.27,482
-0.365,-0.26,483
-0.36,-0.265,484
-0.365,-0.265,485
-0.34,-0.245,486
-0.325,-0.225,487
-0.315,-0.21,488
-0.32,-0.215,489
-0.33,-0.215,490
-0.33,-0.205,491
-0.32,-0.195,492
-0.31,-0.185,493
-0.3,-0.185,494
-0.3,-0.195,495
-0.32,-0.195,496
-0.32,-0.195,497
-0.315,-0.185,498
-0.305,-0.17,499
-0.305,-0.185,500
-0.295,-0.195,501
-0.32,-0.195,502
-0.33,-0.195,503
-0.305,-0.185,504
-0.31,-0.175,505
-0.3,-0.175,506
-0.3,-0.185,507
-0.32,-0.195,508
-0.325,-0.195,509
-0.31,-0.195,510
-0.305,-0.18,511
-0.315,-0.185,512
-0.305,-0.19,513
-0.315,-0.195,514
-0.315,-0.195,515
-0.31,-0.19,516
-0.295,-0.185,517
-0.29,-0.185,518
-0.305,-0.19,519
-0.31,-0.2,520
-0.32,-0.215,521
-0.315,-0.195,522
-0.3,-0.185,523
-0.315,-0.185,524
-0.315,-0.185,525
-0.315,-0.2,526
-0.33,-0.205,527
-0.315,-0.19,528
-0.32,-0.19,529
-0.315,-0.2,530
-0.325,-0.2,531
-0.335,-0.195,532
-0.34,-0.22,533
-0.335,-0.205,534
-0.335,-0.19,535
-0.33,-0.2,536
-0.325,-0.22,537
-0.345,-0.23,538
-0.35,-0.21,539
-0.345,-0.205,540
-0.335,-0.2,541
-0.33,-0.195,542
-0.33,-0.22,543
-0.345,-0.225,544
-0.345,-0.225,545
-0.345,-0.215,546
-0.32,-0.205,547
-0.33,-0.205,548
-0.335,-0.215,549
-0.34,-0.225,550
-0.355,-0.22,551
-0.335,-0.225,552
-0.33,-0.195,553
-0.33,-0.215,554
-0.335,-0.22,555
-0.355,-0.215,556
-0.36,-0.225,557
-0.355,-0.215,558
-0.35,-0.21,559
-0.34,-0.21,560
-0.345,-0.225,561
-0.345,-0.23,562
-0.345,-0.22,563
-0.345,-0.21,564
-0.33,-0.205,565
-0.33,-0.2,566
-0.335,-0.205,567
-0.345,-0.22,568
-0.35,-0.23,569
-0.35,-0.215,570
-0.34,-0.205,571
-0.33,-0.2,572
-0.345,-0.23,573
-0.345,-0.22,574
-0.355,-0.215,575
-0.35,-0.205,576
-0.34,-0.2,577
-0.33,-0.205,578
-0.34,-0.22,579
-0.34,-0.22,580
-0.34,-0.225,581
-0.33,-0.205,582
-0.335,-0.2,583
-0.33,-0.2,584
-0.335,-0.21,585
-0.345,-0.23,586
-0.345,-0.215,587
-0.34,-0.2,588
-0.33,-0.2,589
-0.315,-0.205,590
-0.295,-0.21,591
-0.3,-0.215,592
-0.295,-0.22,593
-0.285,-0.205,594
-0.275,-0.2,595
-0.265,-0.195,596
-0.265,-0.205,597
-0.265,-0.205,598
-0.255,-0.205,599
-0.25,-0.18,600
-0.24,-0.17,601
-0.225,-0.19,602
-0.215,-0.19,603
-0.24,-0.2,604
-0.245,-0.185,605
-0.24,-0.165,606
-0.245,-0.145,607
-0.235,-0.145,608
-0.245,-0.17,609
-0.25,-0.175,610
-0.275,-0.17,611
-0.275,-0.165,612
-0.265,-0.15,613
-0.25,-0.16,614
-0.225,-0.175,615
-0.22,-0.19,616
-0.23,-0.19,617
-0.265,-0.185,618
-0.27,-0.185,619
-0.28,-0.175,620
-0.285,-0.195,621
-0.305,-0.215,622
-0.32,-0.205,623
-0.34,-0.2,624
-0.33,-0.195,625
-0.335,-0.205,626
-0.335,-0.21,627
-0.355,-0.22,628
-0.37,-0.215,629
-0.36,-0.21,630
-0.345,-0.205,631
-0.35,-0.2,632
-0.355,-0.21,633
-0.365,-0.22,634
-0.375,-0.22,635
-0.38,-0.22,636
-0.37,-0.2,637
-0.365,-0.205,638
-0.365,-0.215,639
-0.38,-0.225,640
-0.385,-0.22,641
-0.38,-0.215,642
-0.375,-0.205,643
-0.355,-0.22,644
-0.37,-0.225,645
-0.39,-0.24,646
-0.405,-0.26,647
-0.41,-0.28,648
-0.435,-0.3,649
-0.465,-0.345,650
-0.49,-0.375,651
-0.52,-0.345,652
-0.555,-0.26,653
-0.57,-0.125,654
-0.525,0.025,655
-0.405,0.145,656
-0.25,0.26,657
-0.09,0.375,658
0.12,0.505,659
0.41,0.635,660
0.69,0.705,661
0.885,0.61,662
0.96,0.32,663
0.85,-0.045,664
0.52,-0.25,665
0.05,-0.27,666
-0.32,-0.24,667
-0.5,-0.24,668
-0.505,-0.25,669
-0.445,-0.255,670
-0.415,-0.245,671
-0.395,-0.245,672
-0.39,-0.245,673
-0.395,-0.255,674
-0.39,-0.26,675
-0.395,-0.26,676
-0.405,-0.27,677
-0.395,-0.245,678
-0.405,-0.245,679
-0.39,-0.25,680
-0.395,-0.265,681
-0.395,-0.27,682
-0.41,-0.27,683
-0.405,-0.265,684
-0.4,-0.26,685
-0.4,-0.26,686
-0.415,-0.27,687
-0.405,-0.28,688
-0.42,-0.28,689
-0.415,-0.27,690
-0.405,-0.255,691
-0.405,-0.265,692
-0.42,-0.28,693
-0.42,-0.29,694
-0.435,-0.275,695
-0.42,-0.265,696
-0.41,-0.255,697
-0.41,-0.26,698
-0.405,-0.26,699
-0.425,-0.28,700
-0.43,-0.28,701
-0.42,-0.265,702
-0.415,-0.26,703
-0.41,-0.255,704
-0.41,-0.26,705
-0.425,-0.275,706
-0.42,-0.27,707
-0.4,-0.275,708
-0.395,-0.265,709
-0.4,-0.265,710
-0.4,-0.27,711
-0.395,-0.28,712
-0.415,-0.285,713
-0.405,-0.28,714
-0.39,-0.255,715
-0.4,-0.27,716
-0.4,-0.28,717
-0.415,-0.29,718
-0.425,-0.29,719
-0.425,-0.27,720
-0.415,-0.27,721
-0.415,-0.285,722
-0.41,-0.3,723
-0.425,-0.3,724
-0.425,-0.3,725
-0.42,-0.295,726
-0.415,-0.275,727
-0.4,-0.295,728
-0.4,-0.3,729
-0.41,-0.31,730
-0.425,-0.31,731
-0.41,-0.315,732
-0.405,-0.31,733
-0.395,-0.31,734
-0.4,-0.335,735
-0.4,-0.345,736
-0.405,-0.355,737
-0.385,-0.35,738
-0.4,-0.345,739
-0.39,-0.36,740
-0.39,-0.37,741
-0.4,-0.375,742
-0.415,-0.385,743
-0.405,-0.37,744
-0.405,-0.37,745
-0.41,-0.385,746
-0.415,-0.4,747
-0.42,-0.415,748
-0.42,-0.405,749
-0.425,-0.41,750
-0.415,-0.39,751
-0.415,-0.405,752
-0.41,-0.41,753
-0.435,-0.425,754
-0.43,-0.42,755
-0.435,-0.41,756
-0.42,-0.405,757
-0.42,-0.4,758
-0.42,-0.4,759
-0.42,-0.405,760
-0.425,-0.385,761
-0.425,-0.365,762
-0.415,-0.345,763
-0.395,-0.335,764
-0.395,-0.325,765
-0.39,-0.31,766
-0.375,-0.295,767
-0.36,-0.275,768
-0.34,-0.255,769
-0.335,-0.25,770
-0.33,-0.24,771
-0.335,-0.245,772
-0.335,-0.23,773
-0.325,-0.205,774
-0.32,-0.2,775
-0.305,-0.2,776
-0.305,-0.205,777
-0.315,-0.21,778
-0.31,-0.22,779
-0.305,-0.195,780
-0.3,-0.19,781
-0.3,-0.2,782
-0.3,-0.2,783
-0.31,-0.21,784
-0.31,-0.2,785
-0.31,-0.19,786
-0.315,-0.175,787
-0.3,-0.2,788
-0.305,-0.205,789
-0.315,-0.21,790
-0.32,-0.2,791
-0.325,-0.2,792
-0.31,-0.18,793
-0.305,-0.19,794
-0.305,-0.19,795
-0.32,-0.205,796
-0.325,-0.205,797
-0.305,-0.195,798
-0.31,-0.185,799
-0.295,-0.19,800
-0.31,-0.19,801
-0.325,-0.21,802
-0.33,-0.21,803
-0.32,-0.205,804
-0.32,-0.205,805
-0.32,-0.2,806
-0.325,-0.215,807
-0.35,-0.225,808
-0.35,-0.21,809
-0.34,-0.21,810
-0.335,-0.21,811
-0.33,-0.215,812
-0.335,-0.225,813
-0.34,-0.225,814
-0.36,-0.23,815
-0.35,-0.21,816
-0.35,-0.21,817
-0.355,-0.23,818
-0.36,-0.25,819
-0.355,-0.25,820
-0.365,-0.245,821
-0.355,-0.23,822
-0.35,-0.215,823
-0.34,-0.23,824
-0.355,-0.24,825
-0.35,-0.245,826
-0.365,-0.245,827
-0.365,-0.24,828
-0.35,-0.215,829
-0.355,-0.225,830
-0.35,-0.24,831
-0.37,-0.24,832
-0.38,-0.245,833
-0.37,-0.24,834
-0.36,-0.23,835
-0.365,-0.235,836
-0.36,-0.24,837
-0.365,-0.23,838
-0.38,-0.25,839
-0.37,-0.225,840
-0.365,-0.215,841
-0.35,-0.23,842
-0.35,-0.24,843
-0.35,-0.25,844
-0.37,-0.265,845
-0.365,-0.23,846
-0.345,-0.22,847
-0.345,-0.235,848
-0.34,-0.225,849
-0.355,-0.235,850
-0.365,-0.235,851
-0.36,-0.225,852
-0.355,-0.225,853
-0.355,-0.215,854
-0.355,-0.225,855
-0.375,-0.235,856
-0.385,-0.23,857
-0.355,-0.225,858
-0.36,-0.225,859
-0.355,-0.225,860
-0.36,-0.225,861
-0.36,-0.23,862
-0.37,-0.23,863
-0.36,-0.215,864
-0.345,-0.21,865
-0.355,-0.225,866
-0.345,-0.24,867
-0.345,-0.235,868
-0.345,-0.24,869
-0.34,-0.225,870
-0.31,-0.215,871
-0.305,-0.22,872
-0.305,-0.22,873
-0.31,-0.23,874
-0.305,-0.23,875
-0.29,-0.205,876
-0.285,-0.2,877
-0.275,-0.205,878
-0.28,-0.195,879
-0.28,-0.21,880
-0.275,-0.205,881
-0.265,-0.19,882
-0.255,-0.185,883
-0.245,-0.2,884
-0.26,-0.195,885
-0.265,-0.2,886
-0.275,-0.19,887
-0.28,-0.17,888
-0.265,-0.14,889
-0.27,-0.165,890
-0.275,-0.165,891
-0.28,-0.185,892
-0.275,-0.18,893
-0.28,-0.17,894
-0.275,-0.15,895
-0.265,-0.165,896
-0.255,-0.18,897
-0.24,-0.2,898
-0.26,-0.21,899
-0.28,-0.21,900
-0.31,-0.185,901
-0.31,-0.19,902
-0.345,-0.2,903
-0.36,-0.215,904
-0.38,-0.22,905
-0.385,-0.21,906
-0.38,-0.195,907
-0.37,-0.205,908
-0.375,-0.22,909
-0.385,-0.225,910
-0.39,-0.23,911
-0.395,-0.22,912
-0.385,-0.21,913
-0.385,-0.21,914
-0.385,-0.23,915
-0.395,-0.235,916
-0.405,-0.23,917
-0.4,-0.225,918
-0.375,-0.215,919
-0.375,-0.22,920
-0.39,-0.22,921
-0.395,-0.23,922
-0.415,-0.24,923
-0.405,-0.22,924
-0.4,-0.225,925
-0.39,-0.235,926
-0.405,-0.25,927
-0.425,-0.28,928
-0.46,-0.305,929
-0.475,-0.325,930
-0.505,-0.345,931
-0.51,-0.375,932
-0.525,-0.415,933
-0.54,-0.425,934
-0.6,-0.385,935
-0.645,-0.295,936
-0.63,-0.18,937
-0.575,-0.065,938
-0.495,0.035,939
-0.385,0.13,940
-0.27,0.24,941
-0.115,0.37,942
0.09,0.495,943
0.37,0.61,944
0.635,0.655,945
0.81,0.545,946
0.86,0.23,947
0.77,-0.105,948
0.475,-0.28,949
0.065,-0.285,950
-0.305,-0.255,951
-0.5,-0.255,952
-0.52,-0.26,953
-0.475,-0.23,954
-0.41,-0.22,955
-0.39,-0.245,956
-0.39,-0.255,957
-0.4,-0.26,958
-0.41,-0.25,959
-0.405,-0.235,960
-0.385,-0.245,961
-0.39,-0.245,962
-0.395,-0.26,963
-0.405,-0.265,964
-0.41,-0.265,965
-0.405,-0.26,966
-0.4,-0.24,967
-0.39,-0.245,968
-0.395,-0.26,969
-0.41,-0.27,970
-0.415,-0.27,971
-0.41,-0.255,972
-0.395,-0.255,973
-0.405,-0.25,974
-0.41,-0.265,975
-0.405,-0.27,976
-0.405,-0.27,977
-0.41,-0.265,978
-0.39,-0.25,979
-0.385,-0.245,980
-0.39,-0.265,981
-0.395,-0.27,982
-0.4,-0.26,983
-0.4,-0.255,984
-0.4,-0.245,985
-0.395,-0.25,986
-0.395,-0.26,987
-0.405,-0.27,988
-0.405,-0.26,989
-0.4,-0.255,990
-0.395,-0.25,991
-0.385,-0.255,992
-0.375,-0.255,993
-0.385,-0.275,994
-0.395,-0.27,995
-0.39,-0.265,996
-0.385,-0.26,997
-0.375,-0.26,998
-0.385,-0.275,999
-0.395,-0.27,1000
-0.395,-0.26,1001
-0.385,-0.245,1002
-0.375,-0.255,1003
-0.375,-0.265,1004
-0.385,-0.265,1005
-0.395,-0.27,1006
-0.39,-0.265,1007
-0.39,-0.26,1008
-0.365,-0.27,1009
-0.375,-0.265,1010
-0.385,-0.27,1011
-0.395,-0.28,1012
-0.38,-0.285,1013
-0.385,-0.28,1014
-0.375,-0.285,1015
-0.38,-0.29,1016
-0.39,-0.31,1017
-0.38,-0.305,1018
-0.375,-0.3,1019
-0.375,-0.3,1020
-0.375,-0.31,1021
-0.375,-0.325,1022
-0.38,-0.34,1023
-0.39,-0.34,1024
-0.39,-0.325,1025
-0.365,-0.32,1026
-0.37,-0.355,1027
-0.375,-0.36,1028
-0.385,-0.38,1029
-0.39,-0.385,1030
-0.39,-0.375,1031
-0.375,-0.365,1032
-0.365,-0.375,1033
-0.385,-0.385,1034
-0.38,-0.39,1035
-0.39,-0.395,1036
-0.375,-0.385,1037
-0.375,-0.375,1038
-0.365,-0.375,1039
-0.37,-0.375,1040
-0.385,-0.38,1041
-0.395,-0.365,1042
-0.385,-0.345,1043
-0.385,-0.335,1044
-0.37,-0.315,1045
-0.365,-0.31,1046
-0.37,-0.305,1047
-0.375,-0.29,1048
-0.35,-0.27,1049
-0.335,-0.255,1050
-0.32,-0.25,1051
-0.315,-0.245,1052
-0.32,-0.235,1053
-0.325,-0.235,1054
-0.315,-0.225,1055
-0.295,-0.22,1056
-0.285,-0.195,1057
-0.3,-0.215,1058
-0.295,-0.23,1059
-0.285,-0.215,1060
-0.285,-0.205,1061
-0.28,-0.195,1062
-0.27,-0.2,1063
-0.28,-0.195,1064
-0.29,-0.195,1065
-0.295,-0.205,1066
-0.295,-0.195,1067
-0.29,-0.18,1068
-0.28,-0.19,1069
-0.29,-0.205,1070
-0.295,-0.21,1071
-0.31,-0.205,1072
-0.295,-0.18,1073
-0.285,-0.185,1074
-0.28,-0.19,1075
-0.275,-0.205,1076
-0.295,-0.215,1077
-0.305,-0.215,1078
-0.3,-0.215,1079
-0.295,-0.19,1080
-0.295,-0.21,1081
-0.285,-0.2,1082
-0.3,-0.215,1083
-0.305,-0.22,1084
-0.3,-0.225,1085
-0.295,-0.215,1086
-0.3,-0.215,1087
-0.305,-0.23,1088
-0.315,-0.225,1089
-0.31,-0.225,1090
-0.315,-0.21,1091
-0.295,-0.21,1092
-0.3,-0.215,1093
-0.31,-0.23,1094
-0.33,-0.235,1095
-0.34,-0.23,1096
-0.33,-0.22,1097
-0.32,-0.215,1098
-0.32,-0.23,1099
-0.315,-0.235,1100
-0.325,-0.25,1101
-0.335,-0.245,1102
-0.33,-0.24,1103
-0.315,-0.22,1104
-0.32,-0.23,1105
-0.32,-0.23,1106
-0.33,-0.235,1107
-0.345,-0.24,1108
-0.34,-0.235,1109
-0.335,-0.22,1110
-0.33,-0.23,1111
-0.335,-0.24,1112
-0.345,-0.255,1113
-0.35,-0.245,1114
-0.345,-0.235,1115
-0.34,-0.22,1116
-0.335,-0.23,1117
-0.335,-0.24,1118
-0.33,-0.25,1119
-0.335,-0.255,1120
-0.34,-0.24,1121
-0.335,-0.225,1122
-0.32,-0.23,1123
-0.34,-0.235,1124
-0.34,-0.24,1125
-0.35,-0.245,1126
-0.365,-0.235,1127
-0.36,-0.23,1128
-0.345,-0.235,1129
-0.345,-0.24,1130
-0.35,-0.245,1131
-0.35,-0.235,1132
-0.35,-0.235,1133
-0.34,-0.23,1134
-0.34,-0.24,1135
-0.345,-0.235,1136
-0.345,-0.245,1137
-0.38,-0.25,1138
-0.36,-0.23,1139
-0.36,-0.21,1140
-0.345,-0.23,1141
-0.345,-0.235,1142
-0.35,-0.245,1143
-0.355,-0.25,1144
-0.345,-0.245,1145
-0.33,-0.23,1146
-0.33,-0.23,1147
-0.335,-0.235,1148
-0.335,-0.25,1149
-0.34,-0.25,1150
-0.33,-0.24,1151
-0.32,-0.225,1152
-0.29,-0.23,1153
-0.29,-0.235,1154
-0.3,-0.24,1155
-0.305,-0.245,1156
-0.285,-0.24,1157
-0.28,-0.225,1158
-0.275,-0.225,1159
-0.28,-0.23,1160
-0.275,-0.23,1161
-0.27,-0.225,1162
-0.265,-0.205,1163
-0.25,-0.21,1164
-0.23,-0.22,1165
-0.245,-0.205,1166
-0.24,-0.22,1167
-0.255,-0.22,1168
-0.255,-0.21,1169
-0.245,-0.19,1170
-0.235,-0.18,1171
-0.255,-0.18,1172
-0.265,-0.185,1173
-0.26,-0.19,1174
-0.255,-0.19,1175
-0.27,-0.185,1176
-0.265,-0.205,1177
-0.28,-0.2,1178
-0.255,-0.22,1179
-0.25,-0.22,1180
-0.245,-0.22,1181
-0.265,-0.21,1182
-0.28,-0.225,1183
-0.3,-0.22,1184
-0.315,-0.24,1185
-0.325,-0.245,1186
-0.335,-0.235,1187
-0.345,-0.23,1188
-0.33,-0.245,1189
-0.335,-0.245,1190
-0.345,-0.25,1191
-0.36,-0.255,1192
-0.35,-0.23,1193
-0.34,-0.225,1194
-0.335,-0.23,1195
-0.345,-0.245,1196
-0.36,-0.255,1197
-0.365,-0.265,1198
-0.375,-0.255,1199
-0.37,-0.245,1200
-0.365,-0.26,1201
-0.365,-0.25,1202
-0.38,-0.26,1203
-0.375,-0.27,1204
-0.375,-0.24,1205
-0.365,-0.245,1206
-0.37,-0.25,1207
-0.36,-0.25,1208
-0.37,-0.25,1209
-0.38,-0.265,1210
-0.365,-0.255,1211
-0.36,-0.245,1212
-0.35,-0.255,1213
-0.355,-0.265,1214
-0.37,-0.28,1215
-0.385,-0.305,1216
-0.395,-0.32,1217
-0.43,-0.35,1218
-0.445,-0.38,1219
-0.485,-0.39,1220
-0.515,-0.345,1221
-0.565,-0.24,1222
-0.555,-0.11,1223
-0.475,-0.02,1224
-0.355,0.04,1225
-0.22,0.11,1226
-0.055,0.22,1227
0.185,0.35,1228
0.475,0.44,1229
0.705,0.395,1230
0.82,0.155,1231
0.78,-0.17,1232
0.535,-0.38,1233
0.145,-0.41,1234
-0.2,-0.355,1235
-0.42,-0.32,1236
-0.5,-0.305,1237
-0.48,-0.3,1238
-0.45,-0.295,1239
-0.41,-0.295,1240
-0.4,-0.285,1241
-0.39,-0.3,1242
-0.39,-0.31,1243
-0.4,-0.305,1244
-0.405,-0.305,1245
-0.425,-0.295,1246
-0.425,-0.27,1247
-0.405,-0.27,1248
-0.395,-0.285,1249
-0.405,-0.305,1250
-0.405,-0.31,1251
-0.415,-0.3,1252
-0.405,-0.29,1253
-0.385,-0.275,1254
-0.39,-0.285,1255
-0.395,-0.285,1256
-0.395,-0.305,1257
-0.395,-0.29,1258
-0.395,-0.29,1259
-0.385,-0.285,1260
-0.39,-0.285,1261
-0.39,-0.29,1262
-0.4,-0.3,1263
-0.425,-0.295,1264
-0.41,-0.285,1265
-0.4,-0.275,1266
-0.395,-0.29,1267
-0.4,-0.295,1268
-0.405,-0.275,1269
-0.425,-0.285,1270
-0.415,-0.285,1271
-0.405,-0.26,1272
-0.405,-0.27,1273
-0.405,-0.265,1274
-0.41,-0.285,1275
-0.415,-0.29,1276
-0.405,-0.295,1277
-0.42,-0.28,1278
-0.405,-0.29,1279
-0.41,-0.295,1280
-0.41,-0.3,1281
-0.42,-0.31,1282
-0.415,-0.305,1283
-0.405,-0.295,1284
-0.395,-0.3,1285
-0.395,-0.28,1286
-0.395,-0.29,1287
-0.4,-0.305,1288
-0.395,-0.29,1289
-0.395,-0.285,1290
-0.405,-0.305,1291
-0.405,-0.31,1292
-0.42,-0.315,1293
-0.435,-0.305,1294
-0.415,-0.295,1295
-0.405,-0.29,1296
-0.395,-0.295,1297
-0.39,-0.3,1298
-0.415,-0.305,1299
-0.405,-0.325,1300
-0.405,-0.31,1301
-0.4,-0.3,1302
-0.395,-0.31,1303
-0.395,-0.335,1304
-0.405,-0.34,1305
-0.42,-0.35,1306
-0.415,-0.355,1307
-0.4,-0.34,1308
-0.395,-0.35,1309
-0.4,-0.365,1310
-0.405,-0.38,1311
-0.425,-0.4,1312
-0.425,-0.385,1313
-0.425,-0.38,1314
-0.42,-0.39,1315
-0.425,-0.4,1316
-0.45,-0.405,1317
-0.445,-0.405,1318
-0.45,-0.405,1319
-0.435,-0.415,1320
-0.445,-0.415,1321
-0.47,-0.42,1322
-0.455,-0.415,1323
-0.46,-0.425,1324
-0.44,-0.41,1325
-0.435,-0.395,1326
-0.425,-0.385,1327
-0.43,-0.405,1328
-0.445,-0.395,1329
-0.45,-0.395,1330
-0.445,-0.375,1331
-0.43,-0.37,1332
-0.42,-0.375,1333
-0.41,-0.375,1334
-0.425,-0.37,1335
-0.42,-0.36,1336
-0.405,-0.345,1337
-0.38,-0.32,1338
-0.37,-0.305,1339
-0.365,-0.305,1340
-0.365,-0.3,1341
-0.365,-0.285,1342
-0.345,-0.275,1343
-0.33,-0.26,1344
-0.315,-0.245,1345
-0.305,-0.245,1346
-0.305,-0.25,1347
-0.32,-0.255,1348
-0.31,-0.245,1349
-0.31,-0.23,1350
-0.305,-0.235,1351
-0.31,-0.245,1352
-0.315,-0.255,1353
-0.32,-0.255,1354
-0.315,-0.225,1355
-0.305,-0.23,1356
-0.305,-0.235,1357
-0.295,-0.24,1358
-0.31,-0.25,1359
-0.32,-0.245,1360
-0.31,-0.225,1361
-0.315,-0.215,1362
-0.295,-0.22,1363
-0.3,-0.24,1364
-0.305,-0.25,1365
-0.3,-0.255,1366
-0.285,-0.245,1367
-0.28,-0.24,1368
-0.29,-0.235,1369
-0.295,-0.245,1370
-0.305,-0.255,1371
-0.325,-0.25,1372
-0.305,-0.235,1373
-0.3,-0.23,1374
-0.3,-0.25,1375
-0.315,-0.26,1376
-0.325,-0.275,1377
-0.335,-0.28,1378
-0.325,-0.275,1379
-0.315,-0.26,1380
-0.32,-0.27,1381
-0.335,-0.255,1382
-0.33,-0.265,1383
-0.34,-0.255,1384
-0.325,-0.265,1385
-0.325,-0.26,1386
-0.32,-0.265,1387
-0.315,-0.265,1388
-0.335,-0.275,1389
-0.335,-0.27,1390
-0.345,-0.265,1391
-0.335,-0.255,1392
-0.325,-0.255,1393
-0.33,-0.265,1394
-0.315,-0.275,1395
-0.335,-0.29,1396
-0.33,-0.275,1397
-0.33,-0.26,1398
-0.33,-0.27,1399
-0.33,-0.265,1400
-0.335,-0.27,1401
-0.34,-0.265,1402
-0.33,-0.265,1403
-0.32,-0.25,1404
-0.315,-0.265,1405
-0.325,-0.265,1406
-0.335,-0.27,1407
-0.355,-0.27,1408
-0.345,-0.265,1409
-0.34,-0.255,1410
-0.335,-0.26,1411
-0.32,-0.255,1412
-0.325,-0.27,1413
-0.35,-0.27,1414
-0.33,-0.285,1415
-0.315,-0.265,1416
-0.315,-0.26,1417
-0.33,-0.265,1418
-0.33,-0.27,1419
-0.335,-0.265,1420
-0.335,-0.26,1421
-0.33,-0.25,1422
-0.33,-0.265,1423
-0.33,-0.265,1424
-0.34,-0.27,1425
-0.34,-0.265,1426
-0.34,-0.255,1427
-0.325,-0.245,1428
-0.325,-0.255,1429
-0.325,-0.275,1430
-0.345,-0.275,1431
-0.35,-0.275,1432
-0.34,-0.255,1433
-0.33,-0.255,1434
-0.32,-0.26,1435
-0.31,-0.265,1436
-0.305,-0.285,1437
-0.305,-0.28,1438
-0.275,-0.265,1439
-0.27,-0.26,1440
-0.255,-0.255,1441
-0.26,-0.25,1442
-0.265,-0.255,1443
-0.26,-0.25,1444
-0.25,-0.24,1445
-0.235,-0.23,1446
-0.235,-0.235,1447
-0.22,-0.225,1448
-0.235,-0.235,1449
-0.235,-0.24,1450
-0.22,-0.225,1451
-0.23,-0.215,1452
-0.225,-0.235,1453
-0.235,-0.23,1454
-0.245,-0.225,1455
-0.255,-0.215,1456
-0.24,-0.205,1457
-0.23,-0.2,1458
-0.23,-0.21,1459
-0.25,-0.225,1460
-0.255,-0.23,1461
-0.25,-0.225,1462
-0.23,-0.215,1463
-0.205,-0.21,1464
-0.195,-0.235,1465
-0.21,-0.24,1466
-0.23,-0.255,1467
-0.27,-0.245,1468
-0.27,-0.235,1469
-0.285,-0.23,1470
-0.285,-0.235,1471
-0.31,-0.245,1472
-0.33,-0.27,1473
-0.34,-0.26,1474
-0.34,-0.25,1475
-0.345,-0.24,1476
-0.35,-0.24,1477
-0.35,-0.255,1478
-0.34,-0.26,1479
-0.355,-0.265,1480
-0.345,-0.255,1481
-0.34,-0.245,1482
-0.34,-0.245,1483
-0.345,-0.26,1484
-0.355,-0.255,1485
-0.37,-0.26,1486
-0.355,-0.255,1487
-0.37,-0.24,1488
-0.345,-0.24,1489
-0.34,-0.26,1490
-0.36,-0.26,1491
-0.38,-0.25,1492
-0.36,-0.24,1493
-0.345,-0.235,1494
-0.35,-0.24,1495
-0.35,-0.255,1496
-0.355,-0.27,1497
-0.38,-0.285,1498
-0.39,-0.29,1499
-0.395,-0.31,1500
-0.425,-0.33,1501
-0.455,-0.365,1502
-0.475,-0.37,1503
-0.51,-0.35,1504
-0.545,-0.26,1505
-0.54,-0.135,1506
-0.495,-0.02,1507
-0.405,0.035,1508
-0.295,0.095,1509
-0.16,0.185,1510
0.04,0.315,1511
0.315,0.45,1512
0.595,0.515,1513
0.8,0.45,1514
0.885,0.175,1515
0.795,-0.18,1516
0.52,-0.385,1517
0.13,-0.395,1518
-0.215,-0.345,1519
-0.425,-0.31,1520
-0.5,-0.29,1521
-0.49,-0.275,1522
-0.45,-0.265,1523
-0.4,-0.235,1524
-0.39,-0.25,1525
-0.395,-0.265,1526
-0.395,-0.255,1527
-0.4,-0.245,1528
-0.39,-0.24,1529
-0.38,-0.24,1530
-0.385,-0.25,1531
-0.385,-0.26,1532
-0.4,-0.265,1533
-0.41,-0.275,1534
-0.41,-0.255,1535
-0.39,-0.24,1536
-0.39,-0.245,1537
-0.405,-0.26,1538
-0.405,-0.26,1539
-0.415,-0.265,1540
-0.41,-0.25,1541
-0.395,-0.25,1542
-0.395,-0.245,1543
-0.4,-0.25,1544
-0.415,-0.265,1545
-0.415,-0.255,1546
-0.415,-0.25,1547
-0.4,-0.245,1548
-0.39,-0.245,1549
-0.39,-0.255,1550
-0.41,-0.26,1551
-0.415,-0.25,1552
-0.405,-0.24,1553
-0.395,-0.215,1554
-0.395,-0.23,1555
-0.395,-0.25,1556
-0.405,-0.25,1557
-0.41,-0.255,1558
-0.41,-0.24,1559
-0.4,-0.22,1560
-0.39,-0.235,1561
-0.395,-0.235,1562
-0.41,-0.24,1563
-0.425,-0.255,1564
-0.415,-0.245,1565
-0.405,-0.225,1566
-0.41,-0.23,1567
-0.405,-0.235,1568
-0.415,-0.24,1569
-0.425,-0.24,1570
-0.425,-0.24,1571
-0.41,-0.23,1572
-0.395,-0.245,1573
-0.39,-0.255,1574
-0.4,-0.25,1575
-0.41,-0.25,1576
-0.41,-0.235,1577
-0.4,-0.24,1578
-0.39,-0.235,1579
-0.41,-0.255,1580
-0.42,-0.255,1581
-0.42,-0.255,1582
-0.415,-0.25,1583
-0.415,-0.235,1584
-0.405,-0.26,1585
-0.42,-0.255,1586
-0.415,-0.27,1587
-0.425,-0.285,1588
-0.41,-0.285,1589
-0.4,-0.28,1590
-0.405,-0.285,1591
-0.4,-0.285,1592
-0.4,-0.305,1593
-0.41,-0.295,1594
-0.4,-0.285,1595
-0.395,-0.29,1596
-0.395,-0.305,1597
-0.405,-0.32,1598
-0.41,-0.335,1599
-0.425,-0.34,1600
-0.425,-0.315,1601
-0.41,-0.315,1602
-0.41,-0.33,1603
-0.42,-0.345,1604
-0.43,-0.35,1605
-0.445,-0.355,1606
-0.44,-0.365,1607
-0.435,-0.355,1608
-0.43,-0.365,1609
-0.43,-0.37,1610
-0.45,-0.375,1611
-0.445,-0.375,1612
-0.445,-0.37,1613
-0.435,-0.355,1614
-0.435,-0.36,1615
-0.445,-0.34,1616
-0.44,-0.34,1617
-0.45,-0.33,1618
-0.43,-0.315,1619
-0.43,-0.29,1620
-0.415,-0.275,1621
-0.4,-0.265,1622
-0.4,-0.26,1623
-0.385,-0.245,1624
-0.365,-0.225,1625
-0.335,-0.205,1626
-0.33,-0.2,1627
-0.325,-0.19,1628
-0.33,-0.2,1629
-0.33,-0.185,1630
-0.31,-0.175,1631
-0.295,-0.16,1632
-0.285,-0.155,1633
-0.29,-0.165,1634
-0.29,-0.16,1635
-0.31,-0.17,1636
-0.295,-0.15,1637
-0.285,-0.145,1638
-0.28,-0.15,1639
-0.3,-0.145,1640
-0.29,-0.145,1641
-0.295,-0.155,1642
-0.29,-0.15,1643
-0.28,-0.135,1644
-0.275,-0.145,1645
-0.275,-0.145,1646
-0.29,-0.15,1647
-0.29,-0.145,1648
-0.285,-0.14,1649
-0.27,-0.13,1650
-0.27,-0.135,1651
-0.27,-0.14,1652
-0.275,-0.145,1653
-0.29,-0.165,1654
-0.285,-0.155,1655
-0.275,-0.145,1656
-0.275,-0.15,1657
-0.29,-0.16,1658
-0.295,-0.16,1659
-0.305,-0.16,1660
-0.295,-0.145,1661
-0.295,-0.14,1662
-0.285,-0.15,1663
-0.29,-0.165,1664
-0.3,-0.17,1665
-0.305,-0.165,1666
-0.31,-0.165,1667
-0.295,-0.15,1668
-0.3,-0.15,1669
-0.305,-0.165,1670
-0.31,-0.17,1671
-0.325,-0.18,1672
-0.325,-0.165,1673
-0.315,-0.155,1674
-0.31,-0.16,1675
-0.315,-0.165,1676
-0.315,-0.175,1677
-0.325,-0.18,1678
-0.32,-0.165,1679
-0.31,-0.15,1680
-0.32,-0.17,1681
-0.315,-0.17,1682
-0.33,-0.185,1683
-0.33,-0.175,1684
-0.32,-0.175,1685
-0.31,-0.16,1686
-0.31,-0.165,1687
-0.31,-0.17,1688
-0.33,-0.18,1689
-0.335,-0.175,1690
-0.33,-0.17,1691
-0.32,-0.16,1692
-0.325,-0.16,1693
-0.325,-0.17,1694
-0.33,-0.19,1695
-0.335,-0.165,1696
-0.33,-0.16,1697
-0.325,-0.155,1698
-0.325,-0.16,1699
-0.32,-0.155,1700
-0.325,-0.165,1701
-0.33,-0.185,1702
-0.325,-0.175,1703
-0.315,-0.15,1704
-0.305,-0.155,1705
-0.325,-0.165,1706
-0.315,-0.17,1707
-0.335,-0.17,1708
-0.33,-0.165,1709
-0.31,-0.15,1710
-0.32,-0.16,1711
-0.33,-0.17,1712
-0.33,-0.175,1713
-0.335,-0.18,1714
-0.33,-0.155,1715
-0.33,-0.15,1716
-0.32,-0.145,1717
-0.32,-0.16,1718
-0.33,-0.165,1719
-0.33,-0.16,1720
-0.325,-0.16,1721
-0.315,-0.145,1722
-0.315,-0.15,1723
-0.315,-0.15,1724
-0.33,-0.16,1725
-0.33,-0.16,1726
-0.32,-0.15,1727
-0.315,-0.15,1728
-0.305,-0.15,1729
-0.305,-0.155,1730
-0.295,-0.16,1731
-0.315,-0.16,1732
-0.3,-0.15,1733
-0.275,-0.13,1734
-0.255,-0.15,1735
-0.255,-0.155,1736
-0.26,-0.16,1737
-0.265,-0.15,1738
-0.255,-0.125,1739
-0.235,-0.12,1740
-0.23,-0.115,1741
-0.225,-0.125,1742
-0.22,-0.135,1743
-0.22,-0.14,1744
-0.215,-0.13,1745
-0.2,-0.105,1746
-0.205,-0.105,1747
-0.205,-0.1,1748
-0.225,-0.105,1749
-0.235,-0.09,1750
-0.24,-0.08,1751
-0.23,-0.075,1752
-0.215,-0.09,1753
-0.24,-0.09,1754
-0.24,-0.1,1755
-0.25,-0.1,1756
-0.235,-0.095,1757
-0.21,-0.09,1758
-0.2,-0.11,1759
-0.22,-0.125,1760
-0.255,-0.13,1761
-0.275,-0.12,1762
-0.285,-0.12,1763
-0.3,-0.11,1764
-0.305,-0.11,1765
-0.32,-0.12,1766
-0.33,-0.13,1767
-0.325,-0.14,1768
-0.32,-0.145,1769
-0.33,-0.125,1770
-0.33,-0.13,1771
-0.335,-0.15,1772
-0.34,-0.145,1773
-0.345,-0.14,1774
-0.34,-0.14,1775
-0.335,-0.12,1776
-0.32,-0.135,1777
-0.325,-0.145,1778
-0.335,-0.16,1779
-0.345,-0.15,1780
-0.345,-0.135,1781
-0.345,-0.125,1782
-0.335,-0.135,1783
-0.34,-0.145,1784
-0.345,-0.15,1785
-0.355,-0.16,1786
-0.34,-0.145,1787
-0.34,-0.135,1788
-0.34,-0.135,1789
-0.34,-0.125,1790
-0.345,-0.16,1791
-0.355,-0.175,1792
-0.365,-0.195,1793
-0.37,-0.21,1794
-0.405,-0.23,1795
-0.445,-0.27,1796
-0.48,-0.29,1797
-0.495,-0.28,1798
-0.52,-0.195,1799
-0.535,-0.05,1800
-0.505,0.085,1801
-0.415,0.195,1802
-0.28,0.305,1803
-0.135,0.42,1804
0.065,0.565,1805
0.3,0.705,1806
0.58,0.8,1807
0.81,0.795,1808
0.945,0.595,1809
0.92,0.235,1810
0.775,-0.075,1811
0.445,-0.19,1812
0.02,-0.185,1813
-0.295,-0.155,1814
-0.445,-0.17,1815
-0.47,-0.165,1816
-0.425,-0.155,1817
-0.38,-0.145,1818
-0.36,-0.155,1819
-0.36,-0.19,1820
-0.37,-0.2,1821
-0.38,-0.195,1822
-0.38,-0.175,1823
-0.375,-0.175,1824
-0.37,-0.18,1825
-0.365,-0.185,1826
-0.37,-0.2,1827
-0.385,-0.195,1828
-0.385,-0.2,1829
-0.375,-0.195,1830
-0.37,-0.19,1831
-0.37,-0.195,1832
-0.385,-0.2,1833
-0.395,-0.2,1834
-0.385,-0.19,1835
-0.385,-0.18,1836
-0.39,-0.185,1837
-0.385,-0.195,1838
-0.395,-0.21,1839
-0.41,-0.21,1840
-0.4,-0.175,1841
-0.395,-0.19,1842
-0.38,-0.185,1843
-0.395,-0.185,1844
-0.395,-0.195,1845
-0.4,-0.2,1846
-0.4,-0.195,1847
-0.395,-0.18,1848
-0.39,-0.19,1849
-0.39,-0.195,1850
-0.395,-0.19,1851
-0.405,-0.195,1852
-0.39,-0.175,1853
-0.385,-0.175,1854
-0.375,-0.185,1855
-0.375,-0.19,1856
-0.38,-0.195,1857
-0.39,-0.19,1858
-0.385,-0.185,1859
-0.37,-0.17,1860
-0.37,-0.17,1861
-0.37,-0.19,1862
-0.375,-0.2,1863
-0.385,-0.2,1864
-0.37,-0.18,1865
-0.39,-0.175,1866
-0.375,-0.195,1867
-0.37,-0.175,1868
-0.38,-0.19,1869
-0.39,-0.19,1870
-0.39,-0.19,1871
-0.385,-0.18,1872
-0.375,-0.19,1873
-0.375,-0.21,1874
-0.385,-0.205,1875
-0.395,-0.2,1876
-0.39,-0.21,1877
-0.385,-0.195,1878
-0.375,-0.205,1879
-0.38,-0.215,1880
-0.385,-0.23,1881
-0.39,-0.215,1882
-0.38,-0.225,1883
-0.38,-0.205,1884
-0.37,-0.215,1885
-0.37,-0.235,1886
-0.365,-0.245,1887
-0.39,-0.245,1888
-0.365,-0.24,1889
-0.365,-0.245,1890
-0.36,-0.235,1891
-0.375,-0.26,1892
-0.38,-0.265,1893
-0.4,-0.27,1894
-0.39,-0.265,1895
-0.375,-0.265,1896
-0.375,-0.27,1897
-0.37,-0.285,1898
-0.385,-0.3,1899
-0.39,-0.295,1900
-0.39,-0.295,1901
-0.39,-0.295,1902
-0.39,-0.305,1903
-0.375,-0.31,1904
-0.385,-0.32,1905
-0.395,-0.325,1906
-0.38,-0.32,1907
-0.37,-0.31,1908
-0.375,-0.32,1909
-0.375,-0.32,1910
-0.39,-0.325,1911
-0.405,-0.31,1912
-0.375,-0.28,1913
-0.37,-0.28,1914
-0.36,-0.28,1915
-0.375,-0.265,1916
-0.385,-0.265,1917
-0.38,-0.25,1918
-0.37,-0.225,1919
-0.36,-0.2,1920
-0.345,-0.195,1921
-0.345,-0.19,1922
-0.33,-0.18,1923
-0.33,-0.17,1924
-0.315,-0.15,1925
-0.31,-0.135,1926
-0.295,-0.115,1927
-0.285,-0.125,1928
-0.285,-0.13,1929
-0.295,-0.12,1930
-0.28,-0.105,1931
-0.27,-0.1,1932
-0.28,-0.1,1933
-0.28,-0.1,1934
-0.28,-0.115,1935
-0.29,-0.12,1936
-0.29,-0.105,1937
-0.28,-0.1,1938
-0.275,-0.105,1939
-0.28,-0.115,1940
-0.285,-0.12,1941
-0.29,-0.11,1942
-0.29,-0.105,1943
-0.28,-0.095,1944
-0.28,-0.1,1945
-0.285,-0.11,1946
-0.29,-0.12,1947
-0.3,-0.12,1948
-0.295,-0.115,1949
-0.285,-0.105,1950
-0.28,-0.105,1951
-0.285,-0.095,1952
-0.285,-0.105,1953
-0.295,-0.12,1954
-0.285,-0.115,1955
-0.28,-0.105,1956
-0.275,-0.11,1957
-0.28,-0.125,1958
-0.29,-0.115,1959
-0.31,-0.13,1960
-0.305,-0.115,1961
-0.285,-0.095,1962
-0.27,-0.1,1963
-0.27,-0.11,1964
-0.275,-0.115,1965
-0.285,-0.115,1966
-0.285,-0.105,1967
-0.27,-0.1,1968
-0.265,-0.11,1969
-0.265,-0.1,1970
-0.265,-0.1,1971
-0.28,-0.105,1972
-0.265,-0.095,1973
-0.245,-0.095,1974
-0.235,-0.095,1975
-0.235,-0.11,1976
-0.25,-0.115,1977
-0.25,-0.11,1978
-0.245,-0.105,1979
-0.215,-0.105,1980
-0.22,-0.115,1981
-0.245,-0.115,1982
-0.255,-0.135,1983
-0.23,-0.125,1984
-0.205,-0.135,1985
-0.21,-0.125,1986
-0.22,-0.13,1987
-0.23,-0.15,1988
-0.24,-0.155,1989
-0.24,-0.165,1990
-0.245,-0.165,1991
-0.25,-0.17,1992
-0.27,-0.175,1993
-0.285,-0.17,1994
-0.315,-0.175,1995
-0.32,-0.17,1996
-0.32,-0.165,1997
-0.31,-0.16,1998
-0.33,-0.16,1999
-0.34,-0.17,2000
-0.345,-0.18,2001
-0.36,-0.17,2002
-0.365,-0.155,2003
-0.36,-0.155,2004
-0.35,-0.16,2005
-0.355,-0.16,2006
-0.375,-0.175,2007
-0.385,-0.17,2008
-0.375,-0.155,2009
-0.37,-0.15,2010
-0.365,-0.16,2011
-0.365,-0.155,2012
-0.37,-0.165,2013
-0.38,-0.16,2014
-0.36,-0.15,2015
-0.35,-0.15,2016
-0.355,-0.145,2017
-0.355,-0.155,2018
-0.35,-0.165,2019
-0.365,-0.155,2020
-0.35,-0.135,2021
-0.35,-0.13,2022
-0.34,-0.145,2023
-0.355,-0.155,2024
-0.35,-0.16,2025
-0.375,-0.16,2026
-0.365,-0.175,2027
-0.375,-0.19,2028
-0.4,-0.235,2029
-0.43,-0.25,2030
-0.475,-0.295,2031
-0.52,-0.315,2032
-0.52,-0.295,2033
-0.55,-0.19,2034
-0.57,-0.085,2035
-0.54,0.06,2036
-0.445,0.175,2037
-0.305,0.265,2038
-0.14,0.38,2039
0.025,0.485,2040
0.26,0.59,2041
0.51,0.665,2042
0.735,0.665,2043
0.845,0.5,2044
0.875,0.205,2045
0.735,-0.075,2046
0.4,-0.215,2047
-0.025,-0.205,2048
-0.335,-0.18,2049
-0.48,-0.175,2050
-0.47,-0.165,2051
-0.415,-0.145,2052
-0.375,-0.145,2053
-0.365,-0.16,2054
-0.385,-0.165,2055
-0.4,-0.17,2056
-0.38,-0.155,2057
-0.39,-0.155,2058
-0.375,-0.155,2059
-0.385,-0.17,2060
-0.395,-0.175,2061
-0.405,-0.17,2062
-0.39,-0.155,2063
-0.38,-0.155,2064
-0.385,-0.16,2065
-0.385,-0.165,2066
-0.395,-0.18,2067
-0.4,-0.175,2068
-0.405,-0.17,2069
-0.4,-0.16,2070
-0.39,-0.16,2071
-0.39,-0.17,2072
-0.395,-0.18,2073
-0.4,-0.18,2074
-0.39,-0.17,2075
-0.385,-0.165,2076
-0.39,-0.165,2077
-0.385,-0.175,2078
-0.41,-0.18,2079
-0.42,-0.185,2080
-0.405,-0.17,2081
-0.41,-0.16,2082
-0.39,-0.165,2083
-0.39,-0.175,2084
-0.39,-0.175,2085
-0.4,-0.175,2086
-0.4,-0.18,2087
-0.39,-0.17,2088
-0.375,-0.16,2089
-0.38,-0.17,2090
-0.395,-0.18,2091
-0.4,-0.185,2092
-0.39,-0.17,2093
-0.4,-0.16,2094
-0.39,-0.18,2095
-0.395,-0.18,2096
-0.41,-0.185,2097
-0.415,-0.185,2098
-0.405,-0.165,2099
-0.385,-0.155,2100
-0.385,-0.17,2101
-0.38,-0.175,2102
-0.4,-0.195,2103
-0.4,-0.195,2104
-0.395,-0.19,2105
-0.39,-0.175,2106
-0.38,-0.175,2107
-0.375,-0.19,2108
-0.395,-0.19,2109
-0.395,-0.19,2110
-0.385,-0.185,2111
-0.38,-0.19,2112
-0.375,-0.215,2113
-0.385,-0.22,2114
-0.39,-0.215,2115
-0.4,-0.225,2116
-0.4,-0.215,2117
-0.385,-0.2,2118
-0.38,-0.23,2119
-0.395,-0.225,2120
-0.39,-0.245,2121
-0.4,-0.24,2122
-0.395,-0.245,2123
-0.385,-0.22,2124
-0.38,-0.245,2125
-0.385,-0.26,2126
-0.395,-0.28,2127
-0.405,-0.28,2128
-0.4,-0.285,2129
-0.39,-0.27,2130
-0.38,-0.285,2131
-0.38,-0.295,2132
-0.385,-0.305,2133
-0.405,-0.305,2134
-0.395,-0.315,2135
-0.4,-0.305,2136
-0.39,-0.31,2137
-0.4,-0.33,2138
-0.405,-0.325,2139
-0.425,-0.33,2140
-0.42,-0.315,2141
-0.405,-0.31,2142
-0.4,-0.315,2143
-0.405,-0.31,2144
-0.405,-0.32,2145
-0.415,-0.305,2146
-0.4,-0.29,2147
-0.39,-0.275,2148
-0.38,-0.27,2149
-0.385,-0.265,2150
-0.395,-0.265,2151
-0.405,-0.255,2152
-0.39,-0.245,2153
-0.37,-0.225,2154
-0.37,-0.215,2155
-0.37,-0.215,2156
-0.385,-0.215,2157
-0.37,-0.21,2158
-0.355,-0.205,2159
-0.345,-0.185,2160
-0.34,-0.18,2161
-0.335,-0.19,2162
-0.34,-0.19,2163
-0.355,-0.17,2164
-0.335,-0.155,2165
-0.325,-0.14,2166
-0.31,-0.145,2167
-0.305,-0.165,2168
-0.305,-0.16,2169
-0.32,-0.16,2170
-0.315,-0.15,2171
-0.31,-0.145,2172
-0.305,-0.14,2173
-0.305,-0.15,2174
-0.33,-0.15,2175
-0.325,-0.17,2176
-0.345,-0.155,2177
-0.325,-0.145,2178
-0.315,-0.13,2179
-0.315,-0.14,2180
-0.305,-0.15,2181
-0.31,-0.145,2182
-0.31,-0.15,2183
-0.3,-0.135,2184
-0.305,-0.14,2185
-0.305,-0.155,2186
-0.315,-0.15,2187
-0.32,-0.165,2188
-0.325,-0.145,2189
-0.315,-0.145,2190
-0.305,-0.155,2191
-0.315,-0.16,2192
-0.325,-0.16,2193
-0.325,-0.175,2194
-0.33,-0.155,2195
-0.315,-0.155,2196
-0.315,-0.15,2197
-0.31,-0.16,2198
-0.33,-0.165,2199
-0.34,-0.165,2200
-0.335,-0.175,2201
-0.33,-0.165,2202
-0.345,-0.165,2203
-0.355,-0.165,2204
-0.365,-0.17,2205
-0.37,-0.165,2206
-0.345,-0.16,2207
-0.34,-0.16,2208
-0.34,-0.165,2209
-0.345,-0.17,2210
-0.36,-0.195,2211
-0.365,-0.185,2212
-0.36,-0.18,2213
-0.36,-0.17,2214
-0.345,-0.165,2215
-0.355,-0.185,2216
-0.365,-0.18,2217
-0.35,-0.185,2218
-0.36,-0.17,2219
-0.35,-0.175,2220
-0.34,-0.175,2221
-0.345,-0.175,2222
-0.355,-0.18,2223
-0.37,-0.175,2224
-0.35,-0.155,2225
-0.35,-0.16,2226
-0.35,-0.17,2227
-0.345,-0.18,2228
-0.35,-0.2,2229
-0.355,-0.195,2230
-0.36,-0.165,2231
-0.345,-0.16,2232
-0.355,-0.16,2233
-0.35,-0.165,2234
-0.36,-0.185,2235
-0.37,-0.19,2236
-0.355,-0.18,2237
-0.355,-0.17,2238
-0.35,-0.17,2239
-0.355,-0.17,2240
-0.36,-0.18,2241
-0.39,-0.18,2242
-0.385,-0.17,2243
-0.36,-0.18,2244
-0.36,-0.18,2245
-0.37,-0.2,2246
-0.37,-0.195,2247
-0.39,-0.195,2248
-0.375,-0.155,2249
-0.37,-0.145,2250
-0.35,-0.165,2251
-0.34,-0.18,2252
-0.345,-0.185,2253
-0.36,-0.18,2254
-0.36,-0.17,2255
-0.35,-0.16,2256
-0.35,-0.16,2257
-0.335,-0.17,2258
-0.36,-0.18,2259
-0.365,-0.19,2260
-0.365,-0.18,2261
-0.36,-0.165,2262
-0.36,-0.17,2263
-0.365,-0.185,2264
-0.375,-0.195,2265
-0.385,-0.185,2266
-0.385,-0.185,2267
-0.365,-0.185,2268
-0.37,-0.185,2269
-0.375,-0.19,2270
-0.37,-0.18,2271
-0.375,-0.19,2272
-0.365,-0.19,2273
-0.355,-0.18,2274
-0.355,-0.19,2275
-0.36,-0.19,2276
-0.365,-0.195,2277
-0.37,-0.195,2278
-0.36,-0.185,2279
-0.35,-0.175,2280
-0.34,-0.195,2281
-0.345,-0.18,2282
-0.34,-0.18,2283
-0.35,-0.185,2284
-0.345,-0.19,2285
-0.35,-0.175,2286
-0.36,-0.19,2287
-0.35,-0.19,2288
-0.36,-0.21,2289
-0.37,-0.205,2290
-0.36,-0.185,2291
-0.36,-0.18,2292
-0.355,-0.18,2293
-0.36,-0.19,2294
-0.375,-0.215,2295
-0.375,-0.22,2296
-0.37,-0.205,2297
-0.35,-0.195,2298
-0.355,-0.19,2299
-0.36,-0.195,2300
-0.365,-0.215,2301
-0.375,-0.235,2302
-0.37,-0.21,2303
-0.365,-0.2,2304
-0.36,-0.21,2305
-0.355,-0.205,2306
-0.36,-0.215,2307
-0.36,-0.215,2308
-0.35,-0.205,2309
-0.34,-0.2,2310
-0.345,-0.19,2311
-0.345,-0.22,2312
-0.355,-0.225,2313
-0.36,-0.225,2314
-0.36,-0.205,2315
-0.365,-0.2,2316
-0.345,-0.205,2317
-0.355,-0.205,2318
-0.35,-0.21,2319
-0.36,-0.21,2320
-0.355,-0.195,2321
-0.36,-0.195,2322
-0.345,-0.195,2323
-0.335,-0.2,2324
-0.33,-0.225,2325
-0.33,-0.225,2326
-0.31,-0.205,2327
-0.305,-0.19,2328
-0.3,-0.195,2329
-0.305,-0.19,2330
-0.295,-0.2,2331
-0.305,-0.185,2332
-0.285,-0.18,2333
-0.275,-0.165,2334
-0.265,-0.17,2335
-0.255,-0.18,2336
-0.255,-0.175,2337
-0.26,-0.17,2338
-0.265,-0.165,2339
-0.255,-0.15,2340
-0.255,-0.155,2341
-0.26,-0.165,2342
-0.28,-0.17,2343
-0.29,-0.165,2344
-0.28,-0.165,2345
-0.27,-0.155,2346
-0.255,-0.17,2347
-0.275,-0.18,2348
-0.29,-0.17,2349
-0.32,-0.165,2350
-0.3,-0.16,2351
-0.295,-0.16,2352
-0.27,-0.18,2353
-0.265,-0.19,2354
-0.27,-0.205,2355
-0.285,-0.19,2356
-0.3,-0.19,2357
-0.31,-0.17,2358
-0.315,-0.185,2359
-0.32,-0.19,2360
-0.35,-0.195,2361
-0.37,-0.225,2362
-0.365,-0.215,2363
-0.365,-0.2,2364
-0.365,-0.205,2365
-0.37,-0.205,2366
-0.37,-0.205,2367
-0.37,-0.22,2368
-0.38,-0.21,2369
-0.36,-0.21,2370
-0.375,-0.21,2371
-0.375,-0.215,2372
-0.4,-0.225,2373
-0.42,-0.235,2374
-0.405,-0.23,2375
-0.4,-0.205,2376
-0.385,-0.215,2377
-0.38,-0.225,2378
-0.4,-0.225,2379
-0.415,-0.22,2380
-0.405,-0.22,2381
-0.395,-0.215,2382
-0.395,-0.225,2383
-0.395,-0.225,2384
-0.41,-0.255,2385
-0.43,-0.275,2386
-0.44,-0.29,2387
-0.455,-0.29,2388
-0.49,-0.315,2389
-0.485,-0.33,2390
-0.52,-0.305,2391
-0.57,-0.245,2392
-0.575,-0.115,2393
-0.525,-0.025,2394
-0.42,0.03,2395
-0.305,0.08,2396
-0.19,0.155,2397
-0.02,0.265,2398
0.22,0.385,2399
0.485,0.5,2400
0.715,0.545,2401
0.845,0.45,2402
0.885,0.215,2403
0.79,-0.09,2404
0.56,-0.325,2405
0.225,-0.39,2406
-0.07,-0.385,2407
-0.285,-0.365,2408
-0.425,-0.335,2409
-0.5,-0.295,2410
-0.55,-0.285,2411
-0.535,-0.27,2412
-0.5,-0.265,2413
-0.465,-0.27,2414
-0.45,-0.275,2415
-0.45,-0.285,2416
-0.435,-0.265,2417
-0.42,-0.25,2418
-0.41,-0.26,2419
-0.41,-0.26,2420
-0.415,-0.265,2421
-0.42,-0.27,2422
-0.425,-0.265,2423
-0.42,-0.245,2424
-0.43,-0.26,2425
-0.43,-0.255,2426
-0.44,-0.28,2427
-0.45,-0.26,2428
-0.45,-0.25,2429
-0.43,-0.25,2430
-0.43,-0.255,2431
-0.43,-0.255,2432
-0.445,-0.26,2433
-0.445,-0.26,2434
-0.44,-0.255,2435
-0.425,-0.225,2436
-0.43,-0.24,2437
-0.43,-0.245,2438
-0.425,-0.265,2439
-0.445,-0.275,2440
-0.445,-0.25,2441
-0.43,-0.245,2442
-0.435,-0.23,2443
-0.435,-0.24,2444
-0.445,-0.255,2445
-0.445,-0.25,2446
-0.435,-0.25,2447
-0.43,-0.245,2448
-0.425,-0.235,2449
-0.43,-0.24,2450
-0.43,-0.25,2451
-0.44,-0.25,2452
-0.42,-0.245,2453
-0.43,-0.22,2454
-0.425,-0.245,2455
-0.43,-0.245,2456
-0.44,-0.24,2457
-0.44,-0.255,2458
-0.43,-0.245,2459
-0.43,-0.225,2460
-0.415,-0.24,2461
-0.425,-0.25,2462
-0.43,-0.26,2463
-0.455,-0.265,2464
-0.445,-0.255,2465
-0.445,-0.24,2466
-0.43,-0.25,2467
-0.43,-0.25,2468
-0.44,-0.265,2469
-0.44,-0.26,2470
-0.435,-0.26,2471
-0.43,-0.265,2472
-0.415,-0.275,2473
-0.415,-0.27,2474
-0.425,-0.27,2475
-0.425,-0.27,2476
-0.42,-0.27,2477
-0.405,-0.245,2478
-0.405,-0.265,2479
-0.415,-0.265,2480
-0.415,-0.27,2481
-0.425,-0.285,2482
-0.43,-0.26,2483
-0.405,-0.245,2484
-0.405,-0.255,2485
-0.405,-0.265,2486
-0.405,-0.285,2487
-0.43,-0.295,2488
-0.415,-0.3,2489
-0.41,-0.295,2490
-0.415,-0.285,2491
-0.43,-0.32,2492
-0.445,-0.325,2493
-0.465,-0.335,2494
-0.46,-0.335,2495
-0.45,-0.33,2496
-0.455,-0.35,2497
-0.46,-0.345,2498
-0.465,-0.365,2499
-0.485,-0.38,2500
-0.495,-0.375,2501
-0.475,-0.375,2502
-0.49,-0.385,2503
-0.5,-0.385,2504
-0.495,-0.4,2505
-0.515,-0.4,2506
-0.5,-0.395,2507
-0.485,-0.39,2508
-0.49,-0.39,2509
-0.485,-0.4,2510
-0.5,-0.405,2511
-0.5,-0.41,2512
-0.49,-0.38,2513
-0.48,-0.355,2514
-0.46,-0.35,2515
-0.46,-0.34,2516
-0.47,-0.345,2517
-0.465,-0.335,2518
-0.44,-0.31,2519
-0.43,-0.285,2520
-0.425,-0.28,2521
-0.41,-0.27,2522
-0.41,-0.255,2523
-0.4,-0.245,2524
-0.39,-0.235,2525
-0.38,-0.21,2526
-0.355,-0.215,2527
-0.35,-0.22,2528
-0.355,-0.22,2529
-0.35,-0.215,2530
-0.34,-0.19,2531
-0.33,-0.18,2532
-0.325,-0.18,2533
-0.305,-0.185,2534
-0.32,-0.195,2535
-0.315,-0.195,2536
-0.305,-0.19,2537
-0.3,-0.17,2538
-0.305,-0.17,2539
-0.305,-0.185,2540
-0.31,-0.185,2541
-0.33,-0.185,2542
-0.31,-0.18,2543
-0.315,-0.17,2544
-0.315,-0.19,2545
-0.32,-0.18,2546
-0.325,-0.195,2547
-0.325,-0.19,2548
-0.325,-0.17,2549
-0.31,-0.17,2550
-0.31,-0.175,2551
-0.315,-0.19,2552
-0.325,-0.195,2553
-0.33,-0.19,2554
-0.325,-0.185,2555
-0.325,-0.185,2556
-0.315,-0.18,2557
-0.32,-0.185,2558
-0.33,-0.19,2559
-0.335,-0.205,2560
-0.33,-0.195,2561
-0.315,-0.185,2562
-0.32,-0.185,2563
-0.32,-0.185,2564
-0.335,-0.205,2565
-0.335,-0.205,2566
-0.325,-0.18,2567
-0.325,-0.195,2568
-0.32,-0.195,2569
-0.32,-0.205,2570
-0.325,-0.21,2571
-0.35,-0.225,2572
-0.345,-0.21,2573
-0.345,-0.2,2574
-0.335,-0.2,2575
-0.345,-0.205,2576
-0.355,-0.21,2577
-0.355,-0.225,2578
-0.355,-0.21,2579
-0.345,-0.2,2580
-0.335,-0.2,2581
-0.335,-0.205,2582
-0.345,-0.21,2583
-0.355,-0.2,2584
-0.34,-0.195,2585
-0.335,-0.185,2586
-0.33,-0.205,2587
-0.335,-0.21,2588
-0.345,-0.22,2589
-0.35,-0.215,2590
-0.35,-0.205,2591
-0.34,-0.2,2592
-0.335,-0.215,2593
-0.33,-0.21,2594
-0.36,-0.225,2595
-0.355,-0.22,2596
-0.345,-0.215,2597
-0.335,-0.2,2598
-0.345,-0.21,2599
-0.35,-0.205,2600
-0.36,-0.215,2601
-0.38,-0.215,2602
-0.37,-0.215,2603
-0.345,-0.2,2604
-0.345,-0.2,2605
-0.35,-0.21,2606
-0.355,-0.22,2607
-0.365,-0.21,2608
-0.36,-0.195,2609
-0.345,-0.2,2610
-0.345,-0.19,2611
-0.35,-0.21,2612
-0.36,-0.22,2613
-0.36,-0.215,2614
-0.35,-0.2,2615
-0.355,-0.185,2616
-0.34,-0.195,2617
-0.345,-0.2,2618
-0.355,-0.2,2619
-0.355,-0.205,2620
-0.355,-0.195,2621
-0.34,-0.185,2622
-0.34,-0.19,2623
-0.345,-0.195,2624
-0.365,-0.2,2625
-0.37,-0.2,2626
-0.35,-0.2,2627
-0.33,-0.19,2628
-0.32,-0.2,2629
-0.315,-0.19,2630
-0.295,-0.2,2631
-0.305,-0.195,2632
-0.295,-0.18,2633
-0.3,-0.16,2634
-0.285,-0.18,2635
-0.275,-0.18,2636
-0.26,-0.185,2637
-0.275,-0.18,2638
-0.265,-0.16,2639
-0.26,-0.145,2640
-0.25,-0.155,2641
-0.245,-0.17,2642
-0.255,-0.17,2643
-0.265,-0.155,2644
-0.26,-0.145,2645
-0.26,-0.13,2646
-0.25,-0.135,2647
-0.26,-0.14,2648
-0.28,-0.135,2649
-0.28,-0.14,2650
-0.275,-0.14,2651
-0.285,-0.125,2652
-0.28,-0.13,2653
-0.255,-0.15,2654
-0.245,-0.165,2655
-0.245,-0.165,2656
-0.26,-0.165,2657
-0.285,-0.155,2658
-0.29,-0.15,2659
-0.3,-0.165,2660
-0.32,-0.18,2661
-0.335,-0.195,2662
-0.355,-0.175,2663
-0.35,-0.17,2664
-0.355,-0.175,2665
-0.355,-0.185,2666
-0.375,-0.195,2667
-0.385,-0.19,2668
-0.38,-0.175,2669
-0.36,-0.185,2670
-0.35,-0.19,2671
-0.36,-0.205,2672
-0.365,-0.215,2673
-0.37,-0.215,2674
-0.37,-0.195,2675
-0.365,-0.18,2676
-0.36,-0.19,2677
-0.365,-0.2,2678
-0.37,-0.2,2679
-0.385,-0.215,2680
-0.385,-0.2,2681
-0.365,-0.18,2682
-0.36,-0.195,2683
-0.38,-0.2,2684
-0.385,-0.205,2685
-0.395,-0.21,2686
-0.395,-0.2,2687
-0.385,-0.205,2688
-0.38,-0.235,2689
-0.395,-0.26,2690
-0.425,-0.285,2691
-0.465,-0.3,2692
-0.5,-0.325,2693
-0.515,-0.32,2694
-0.53,-0.29,2695
-0.56,-0.19,2696
-0.585,-0.055,2697
-0.53,0.05,2698
-0.41,0.15,2699
-0.255,0.245,2700
-0.105,0.345,2701
0.105,0.445,2702
0.355,0.53,2703
0.6,0.595,2704
0.81,0.52,2705
0.89,0.275,2706
0.83,-0.085,2707
0.58,-0.3,2708
0.185,-0.335,2709
-0.205,-0.285,2710
-0.45,-0.25,2711
-0.525,-0.245,2712
-0.495,-0.235,2713
-0.465,-0.215,2714
-0.435,-0.23,2715
-0.415,-0.23,2716
-0.415,-0.24,2717
-0.415,-0.235,2718
-0.4,-0.235,2719
-0.395,-0.245,2720
-0.405,-0.255,2721
-0.425,-0.25,2722
-0.435,-0.24,2723
-0.415,-0.225,2724
-0.415,-0.23,2725
-0.415,-0.25,2726
-0.415,-0.24,2727
-0.43,-0.255,2728
-0.42,-0.23,2729
-0.41,-0.225,2730
-0.405,-0.225,2731
-0.42,-0.225,2732
-0.41,-0.23,2733
-0.42,-0.24,2734
-0.4,-0.225,2735
-0.395,-0.215,2736
-0.385,-0.215,2737
-0.4,-0.225,2738
-0.4,-0.235,2739
-0.4,-0.24,2740
-0.4,-0.225,2741
-0.395,-0.205,2742
-0.4,-0.21,2743
-0.4,-0.225,2744
-0.4,-0.23,2745
-0.41,-0.235,2746
-0.395,-0.225,2747
-0.41,-0.215,2748
-0.4,-0.22,2749
-0.395,-0.23,2750
-0.405,-0.235,2751
-0.41,-0.23,2752
-0.415,-0.215,2753
-0.405,-0.215,2754
-0.4,-0.215,2755
-0.395,-0.225,2756
-0.405,-0.235,2757
-0.415,-0.235,2758
-0.405,-0.23,2759
-0.415,-0.215,2760
-0.41,-0.225,2761
-0.405,-0.225,2762
-0.405,-0.235,2763
-0.41,-0.245,2764
-0.405,-0.24,2765
-0.4,-0.225,2766
-0.395,-0.21,2767
-0.405,-0.23,2768
-0.405,-0.23,2769
-0.4,-0.245,2770
-0.395,-0.22,2771
-0.39,-0.225,2772
-0.395,-0.235,2773
-0.39,-0.245,2774
-0.395,-0.25,2775
-0.42,-0.25,2776
-0.415,-0.24,2777
-0.405,-0.24,2778
-0.4,-0.245,2779
-0.4,-0.25,2780
-0.415,-0.27,2781
-0.42,-0.27,2782
-0.41,-0.265,2783
-0.395,-0.26,2784
-0.4,-0.28,2785
-0.405,-0.295,2786
-0.415,-0.295,2787
-0.435,-0.315,2788
-0.415,-0.31,2789
-0.415,-0.305,2790
-0.4,-0.31,2791
-0.405,-0.325,2792
-0.42,-0.33,2793
-0.43,-0.35,2794
-0.425,-0.34,2795
-0.41,-0.335,2796
-0.41,-0.35,2797
-0.405,-0.35,2798
-0.415,-0.37,2799
-0.425,-0.365,2800
-0.425,-0.355,2801
-0.42,-0.335,2802
-0.41,-0.355,2803
-0.41,-0.365,2804
-0.42,-0.37,2805
-0.43,-0.36,2806
-0.425,-0.335,2807
-0.42,-0.315,2808
-0.405,-0.315,2809
-0.415,-0.305,2810
-0.41,-0.285,2811
-0.41,-0.285,2812
-0.385,-0.27,2813
-0.37,-0.24,2814
-0.36,-0.23,2815
-0.35,-0.22,2816
-0.35,-0.22,2817
-0.35,-0.2,2818
-0.335,-0.18,2819
-0.32,-0.175,2820
-0.305,-0.18,2821
-0.315,-0.185,2822
-0.315,-0.19,2823
-0.32,-0.185,2824
-0.305,-0.18,2825
-0.305,-0.175,2826
-0.295,-0.17,2827
-0.29,-0.165,2828
-0.295,-0.175,2829
-0.295,-0.17,2830
-0.285,-0.165,2831
-0.285,-0.155,2832
-0.27,-0.16,2833
-0.28,-0.16,2834
-0.28,-0.165,2835
-0.295,-0.165,2836
-0.28,-0.16,2837
-0.285,-0.145,2838
-0.275,-0.15,2839
-0.285,-0.16,2840
-0.295,-0.165,2841
-0.305,-0.175,2842
-0.295,-0.15,2843
-0.285,-0.14,2844
-0.285,-0.155,2845
-0.29,-0.16,2846
-0.3,-0.175,2847
-0.31,-0.175,2848
-0.295,-0.17,2849
-0.3,-0.16,2850
-0.29,-0.155,2851
-0.285,-0.165,2852
-0.305,-0.175,2853
-0.31,-0.18,2854
-0.3,-0.17,2855
-0.295,-0.165,2856
-0.305,-0.17,2857
-0.3,-0.185,2858
-0.305,-0.185,2859
-0.32,-0.18,2860
-0.32,-0.175,2861
-0.31,-0.17,2862
-0.3,-0.18,2863
-0.31,-0.185,2864
-0.32,-0.2,2865
-0.34,-0.195,2866
-0.33,-0.185,2867
-0.31,-0.175,2868
-0.315,-0.18,2869
-0.325,-0.185,2870
-0.325,-0.205,2871
-0.345,-0.21,2872
-0.33,-0.19,2873
-0.32,-0.185,2874
-0.32,-0.19,2875
-0.335,-0.2,2876
-0.335,-0.205,2877
-0.355,-0.215,2878
-0.34,-0.2,2879
-0.32,-0.18,2880
-0.315,-0.185,2881
-0.33,-0.2,2882
-0.34,-0.205,2883
-0.34,-0.2,2884
-0.35,-0.205,2885
-0.33,-0.19,2886
-0.33,-0.19,2887
-0.34,-0.18,2888
-0.35,-0.205,2889
-0.355,-0.2,2890
-0.345,-0.195,2891
-0.335,-0.18,2892
-0.335,-0.185,2893
-0.34,-0.185,2894
-0.34,-0.2,2895
-0.345,-0.2,2896
-0.335,-0.18,2897
-0.335,-0.18,2898
-0.325,-0.185,2899
-0.325,-0.185,2900
-0.335,-0.2,2901
-0.34,-0.195,2902
-0.34,-0.175,2903
-0.32,-0.175,2904
-0.315,-0.185,2905
-0.32,-0.19,2906
-0.335,-0.195,2907
-0.335,-0.205,2908
-0.32,-0.185,2909
-0.325,-0.16,2910
-0.315,-0.17,2911
-0.32,-0.19,2912
-0.32,-0.19,2913
-0.345,-0.19,2914
-0.335,-0.18,2915
-0.32,-0.17,2916
-0.31,-0.16,2917
-0.32,-0.17,2918
-0.32,-0.185,2919
-0.34,-0.195,2920
-0.33,-0.18,2921
-0.32,-0.175,2922
-0.31,-0.17,2923
-0.31,-0.17,2924
-0.31,-0.195,2925
-0.295,-0.2,2926
-0.28,-0.18,2927
-0.255,-0.17,2928
-0.25,-0.175,2929
-0.25,-0.18,2930
-0.255,-0.18,2931
-0.26,-0.17,2932
-0.24,-0.155,2933
-0.22,-0.135,2934
-0.23,-0.145,2935
-0.23,-0.16,2936
-0.215,-0.16,2937
-0.22,-0.16,2938
-0.225,-0.14,2939
-0.23,-0.12,2940
-0.23,-0.12,2941
-0.235,-0.13,2942
-0.245,-0.13,2943
-0.255,-0.125,2944
-0.24,-0.125,2945
-0.235,-0.115,2946
-0.245,-0.11,2947
-0.235,-0.13,2948
-0.23,-0.145,2949
-0.22,-0.155,2950
-0.195,-0.14,2951
-0.22,-0.14,2952
-0.245,-0.145,2953
-0.26,-0.15,2954
-0.27,-0.16,2955
-0.29,-0.165,2956
-0.3,-0.16,2957
-0.305,-0.15,2958
-0.305,-0.165,2959
-0.32,-0.185,2960
-0.33,-0.18,2961
-0.35,-0.185,2962
-0.35,-0.17,2963
-0.335,-0.155,2964
-0.335,-0.175,2965
-0.335,-0.19,2966
-0.34,-0.195,2967
-0.35,-0.195,2968
-0.35,-0.18,2969
-0.345,-0.175,2970
-0.335,-0.18,2971
-0.345,-0.18,2972
-0.355,-0.19,2973
-0.37,-0.17,2974
-0.35,-0.18,2975
-0.345,-0.175,2976
-0.335,-0.18,2977
-0.335,-0.185,2978
-0.335,-0.2,2979
-0.355,-0.195,2980
-0.355,-0.2,2981
-0.345,-0.225,2982
-0.355,-0.255,2983
-0.395,-0.295,2984
-0.45,-0.33,2985
-0.48,-0.34,2986
-0.505,-0.305,2987
-0.525,-0.195,2988
-0.545,-0.065,2989
-0.5,0.07,2990
-0.395,0.18,2991
-0.255,0.285,2992
-0.07,0.415,2993
0.145,0.555,2994
0.425,0.67,2995
0.685,0.7,2996
0.875,0.555,2997
0.925,0.21,2998
0.795,-0.125,2999
0.47,-0.265,3000
0.02,-0.24,3001
-0.325,-0.215,3002
-0.47,-0.215,3003
-0.485,-0.23,3004
-0.41,-0.22,3005
-0.365,-0.21,3006
-0.355,-0.235,3007
-0.365,-0.235,3008
-0.38,-0.235,3009
-0.385,-0.23,3010
-0.38,-0.225,3011
-0.37,-0.21,3012
-0.37,-0.215,3013
-0.375,-0.225,3014
-0.385,-0.24,3015
-0.395,-0.25,3016
-0.385,-0.23,3017
-0.38,-0.23,3018
-0.385,-0.225,3019
-0.375,-0.23,3020
-0.39,-0.24,3021
-0.405,-0.235,3022
-0.405,-0.23,3023
-0.39,-0.225,3024
-0.385,-0.23,3025
-0.385,-0.245,3026
-0.39,-0.235,3027
-0.41,-0.235,3028
-0.4,-0.22,3029
-0.39,-0.22,3030
-0.385,-0.225,3031
-0.385,-0.23,3032
-0.395,-0.245,3033
-0.39,-0.225,3034
-0.395,-0.22,3035
-0.38,-0.21,3036
-0.375,-0.21,3037
-0.38,-0.22,3038
-0.385,-0.24,3039
-0.4,-0.235,3040
-0.385,-0.225,3041
-0.38,-0.21,3042
-0.375,-0.2,3043
-0.38,-0.225,3044
-0.395,-0.225,3045
-0.395,-0.225,3046
-0.385,-0.225,3047
-0.375,-0.215,3048
-0.37,-0.215,3049
-0.365,-0.235,3050
-0.385,-0.24,3051
-0.395,-0.24,3052
-0.385,-0.235,3053
-0.385,-0.22,3054
-0.37,-0.225,3055
-0.375,-0.235,3056
-0.37,-0.245,3057
-0.375,-0.245,3058
-0.375,-0.23,3059
-0.37,-0.225,3060
-0.355,-0.22,3061
-0.365,-0.245,3062
-0.38,-0.25,3063
-0.375,-0.255,3064
-0.37,-0.255,3065
-0.38,-0.24,3066
-0.365,-0.25,3067
-0.37,-0.26,3068
-0.375,-0.275,3069
-0.39,-0.285,3070
-0.38,-0.275,3071
-0.375,-0.28,3072
-0.38,-0.29,3073
-0.37,-0.3,3074
-0.375,-0.305,3075
-0.38,-0.315,3076
-0.385,-0.31,3077
-0.385,-0.315,3078
-0.37,-0.325,3079
-0.375,-0.335,3080
-0.375,-0.35,3081
-0.38,-0.345,3082
-0.38,-0.34,3083
-0.38,-0.335,3084
-0.38,-0.35,3085
-0.375,-0.36,3086
-0.39,-0.37,3087
-0.395,-0.365,3088
-0.385,-0.36,3089
-0.385,-0.345,3090
-0.375,-0.34,3091
-0.375,-0.35,3092
-0.385,-0.355,3093
-0.385,-0.345,3094
-0.39,-0.325,3095
-0.37,-0.305,3096
-0.365,-0.3,3097
-0.365,-0.285,3098
-0.375,-0.285,3099
-0.385,-0.28,3100
-0.35,-0.265,3101
-0.345,-0.23,3102
-0.325,-0.235,3103
-0.325,-0.24,3104
-0.33,-0.245,3105
-0.325,-0.225,3106
-0.325,-0.215,3107
-0.315,-0.195,3108
-0.315,-0.18,3109
-0.315,-0.18,3110
-0.3,-0.19,3111
-0.3,-0.18,3112
-0.285,-0.165,3113
-0.27,-0.14,3114
-0.265,-0.155,3115
-0.26,-0.165,3116
-0.275,-0.16,3117
-0.285,-0.155,3118
-0.265,-0.145,3119
-0.255,-0.135,3120
-0.25,-0.15,3121
-0.27,-0.165,3122
-0.28,-0.17,3123
-0.285,-0.15,3124
-0.285,-0.145,3125
-0.28,-0.145,3126
-0.27,-0.145,3127
-0.27,-0.16,3128
-0.27,-0.17,3129
-0.285,-0.17,3130
-0.28,-0.155,3131
-0.275,-0.135,3132
-0.27,-0.145,3133
-0.265,-0.155,3134
-0.275,-0.165,3135
-0.29,-0.18,3136
-0.285,-0.165,3137
-0.285,-0.15,3138
-0.275,-0.16,3139
-0.27,-0.15,3140
-0.28,-0.17,3141
-0.295,-0.175,3142
-0.28,-0.165,3143
-0.27,-0.155,3144
-0.27,-0.165,3145
-0.275,-0.175,3146
-0.285,-0.18,3147
-0.3,-0.175,3148
-0.295,-0.165,3149
-0.29,-0.16,3150
-0.295,-0.165,3151
-0.3,-0.185,3152
-0.29,-0.195,3153
-0.305,-0.185,3154
-0.295,-0.185,3155
-0.29,-0.17,3156
-0.295,-0.175,3157
-0.29,-0.17,3158
-0.31,-0.185,3159
-0.32,-0.18,3160
-0.315,-0.185,3161
-0.315,-0.18,3162
-0.3,-0.175,3163
-0.305,-0.185,3164
-0.315,-0.19,3165
-0.33,-0.185,3166
-0.32,-0.17,3167
-0.305,-0.16,3168
-0.315,-0.185,3169
-0.305,-0.185,3170
-0.315,-0.19,3171
-0.325,-0.2,3172
-0.31,-0.195,3173
-0.295,-0.165,3174
-0.3,-0.175,3175
-0.305,-0.18,3176
-0.31,-0.19,3177
-0.325,-0.195,3178
-0.315,-0.19,3179
-0.315,-0.16,3180
-0.305,-0.175,3181
-0.305,-0.165,3182
-0.325,-0.185,3183
-0.32,-0.18,3184
-0.32,-0.18,3185
-0.31,-0.155,3186
-0.305,-0.17,3187
-0.32,-0.18,3188
-0.32,-0.18,3189
-0.32,-0.185,3190
-0.31,-0.165,3191
-0.305,-0.15,3192
-0.29,-0.16,3193
-0.285,-0.165,3194
-0.29,-0.18,3195
-0.305,-0.18,3196
-0.31,-0.165,3197
-0.3,-0.15,3198
-0.3,-0.155,3199
-0.31,-0.155,3200
-0.315,-0.17,3201
-0.315,-0.175,3202
-0.31,-0.165,3203
-0.295,-0.155,3204
-0.3,-0.15,3205
-0.295,-0.155,3206
-0.315,-0.165,3207
-0.31,-0.165,3208
-0.29,-0.16,3209
-0.265,-0.16,3210
-0.24,-0.165,3211
-0.255,-0.17,3212
-0.24,-0.175,3213
-0.25,-0.16,3214
-0.225,-0.135,3215
-0.225,-0.14,3216
-0.215,-0.145,3217
-0.21,-0.14,3218
-0.2,-0.145,3219
-0.195,-0.135,3220
-0.195,-0.125,3221
-0.18,-0.115,3222
-0.175,-0.115,3223
-0.18,-0.125,3224
-0.205,-0.13,3225
-0.215,-0.105,3226
-0.21,-0.095,3227
-0.21,-0.095,3228
-0.21,-0.095,3229
-0.21,-0.095,3230
-0.215,-0.095,3231
-0.225,-0.115,3232
-0.21,-0.12,3233
-0.18,-0.12,3234
-0.17,-0.13,3235
-0.185,-0.135,3236
-0.24,-0.125,3237
-0.255,-0.14,3238
-0.255,-0.135,3239
-0.27,-0.12,3240
-0.275,-0.15,3241
-0.285,-0.15,3242
-0.3,-0.155,3243
-0.3,-0.16,3244
-0.315,-0.145,3245
-0.305,-0.14,3246
-0.3,-0.145,3247
-0.295,-0.145,3248
-0.3,-0.16,3249
-0.315,-0.165,3250
-0.31,-0.155,3251
-0.31,-0.145,3252
-0.3,-0.155,3253
-0.3,-0.155,3254
-0.305,-0.17,3255
-0.315,-0.165,3256
-0.325,-0.16,3257
-0.32,-0.155,3258
-0.32,-0.16,3259
-0.32,-0.17,3260
-0.325,-0.17,3261
-0.34,-0.165,3262
-0.335,-0.165,3263
-0.325,-0.145,3264
-0.315,-0.17,3265
-0.32,-0.19,3266
-0.345,-0.225,3267
-0.37,-0.25,3268
-0.395,-0.27,3269
-0.425,-0.28,3270
-0.445,-0.305,3271
-0.465,-0.29,3272
-0.51,-0.2,3273
-0.53,-0.075,3274
-0.485,0.04,3275
-0.37,0.135,3276
-0.235,0.215,3277
-0.09,0.32,3278
0.105,0.435,3279
0.375,0.54,3280
0.655,0.58,3281
0.82,0.465,3282
0.865,0.145,3283
0.735,-0.155,3284
0.45,-0.285,3285
0.06,-0.25,3286
-0.27,-0.2,3287
-0.43,-0.18,3288
-0.46,-0.19,3289
-0.415,-0.19,3290
-0.385,-0.185,3291
-0.365,-0.195,3292
-0.355,-0.185,3293
-0.355,-0.175,3294
-0.345,-0.19,3295
-0.35,-0.195,3296
-0.35,-0.205,3297
-0.36,-0.205,3298
-0.345,-0.185,3299
-0.34,-0.165,3300
-0.34,-0.185,3301
-0.335,-0.19,3302
-0.335,-0.21,3303
-0.355,-0.21,3304
-0.345,-0.2,3305
-0.34,-0.19,3306
-0.335,-0.185,3307
-0.34,-0.195,3308
-0.35,-0.21,3309
-0.365,-0.21,3310
-0.36,-0.19,3311
-0.365,-0.18,3312
-0.35,-0.19,3313
-0.345,-0.195,3314
-0.365,-0.215,3315
-0.36,-0.215,3316
-0.35,-0.195,3317
-0.355,-0.185,3318
-0.35,-0.18,3319
-0.355,-0.185,3320
-0.35,-0.2,3321
-0.36,-0.205,3322
-0.335,-0.19,3323
-0.335,-0.18,3324
-0.33,-0.185,3325
-0.34,-0.195,3326
-0.35,-0.195,3327
-0.35,-0.195,3328
-0.345,-0.19,3329
-0.335,-0.185,3330
-0.345,-0.195,3331
-0.355,-0.195,3332
-0.355,-0.205,3333
-0.37,-0.2,3334
-0.355,-0.19,3335
-0.35,-0.185,3336
-0.345,-0.195,3337
-0.365,-0.21,3338
-0.365,-0.215,3339
-0.37,-0.215,3340
-0.365,-0.205,3341
-0.355,-0.19,3342
-0.345,-0.19,3343
-0.345,-0.205,3344
-0.345,-0.22,3345
-0.34,-0.215,3346
-0.335,-0.205,3347
-0.325,-0.21,3348
-0.335,-0.22,3349
-0.345,-0.23,3350
-0.35,-0.24,3351
-0.35,-0.255,3352
-0.355,-0.24,3353
-0.355,-0.225,3354
-0.36,-0.23,3355
-0.35,-0.25,3356
-0.36,-0.25,3357
-0.365,-0.26,3358
-0.345,-0.26,3359
-0.345,-0.255,3360
-0.33,-0.26,3361
-0.35,-0.285,3362
-0.345,-0.295,3363
-0.355,-0.3,3364
-0.35,-0.285,3365
-0.34,-0.28,3366
-0.335,-0.29,3367
-0.35,-0.305,3368
-0.365,-0.315,3369
-0.38,-0.32,3370
-0.385,-0.31,3371
-0.355,-0.305,3372
-0.36,-0.31,3373
-0.355,-0.32,3374
-0.37,-0.325,3375
-0.385,-0.335,3376
-0.37,-0.32,3377
-0.37,-0.3,3378
-0.35,-0.3,3379
-0.345,-0.3,3380
-0.365,-0.285,3381
-0.365,-0.28,3382
-0.36,-0.26,3383
-0.345,-0.24,3384
-0.33,-0.235,3385
-0.33,-0.225,3386
-0.33,-0.23,3387
-0.335,-0.225,3388
-0.315,-0.19,3389
-0.31,-0.18,3390
-0.285,-0.185,3391
-0.29,-0.18,3392
-0.29,-0.195,3393
-0.3,-0.18,3394
-0.28,-0.17,3395
-0.275,-0.16,3396
-0.26,-0.17,3397
-0.26,-0.17,3398
-0.27,-0.18,3399
-0.265,-0.18,3400
-0.255,-0.17,3401
-0.25,-0.155,3402
-0.245,-0.155,3403
-0.245,-0.16,3404
-0.255,-0.18,3405
-0.265,-0.175,3406
-0.26,-0.165,3407
-0.255,-0.16,3408
-0.24,-0.17,3409
-0.25,-0.175,3410
-0.255,-0.19,3411
-0.275,-0.19,3412
-0.275,-0.175,3413
-0.265,-0.165,3414
-0.27,-0.175,3415
-0.275,-0.18,3416
-0.28,-0.185,3417
-0.29,-0.185,3418
-0.28,-0.185,3419
-0.275,-0.165,3420
-0.27,-0.185,3421
-0.27,-0.185,3422
-0.28,-0.205,3423
-0.29,-0.21,3424
-0.28,-0.195,3425
-0.285,-0.17,3426
-0.275,-0.18,3427
-0.29,-0.185,3428
-0.28,-0.19,3429
-0.29,-0.2,3430
-0.28,-0.2,3431
-0.285,-0.195,3432
-0.275,-0.2,3433
-0.28,-0.205,3434
-0.295,-0.21,3435
-0.305,-0.215,3436
-0.3,-0.205,3437
-0.3,-0.205,3438
-0.305,-0.22,3439
-0.315,-0.215,3440
-0.32,-0.225,3441
-0.31,-0.215,3442
-0.31,-0.21,3443
-0.3,-0.19,3444
-0.31,-0.205,3445
-0.31,-0.215,3446
-0.32,-0.22,3447
-0.325,-0.225,3448
-0.31,-0.21,3449
-0.32,-0.2,3450
-0.31,-0.205,3451
-0.31,-0.215,3452
-0.315,-0.22,3453
-0.325,-0.225,3454
-0.315,-0.215,3455
-0.305,-0.205,3456
-0.315,-0.195,3457
-0.31,-0.215,3458
-0.32,-0.23,3459
-0.325,-0.235,3460
-0.325,-0.22,3461
-0.32,-0.205,3462
-0.305,-0.22,3463
-0.305,-0.23,3464
-0.3,-0.24,3465
-0.315,-0.235,3466
-0.3,-0.215,3467
-0.31,-0.21,3468
-0.315,-0.205,3469
-0.305,-0.205,3470
-0.31,-0.21,3471
-0.32,-0.215,3472
-0.31,-0.22,3473
-0.3,-0.205,3474
-0.295,-0.22,3475
-0.3,-0.23,3476
-0.315,-0.225,3477
-0.325,-0.225,3478
-0.325,-0.195,3479
-0.305,-0.195,3480
-0.31,-0.22,3481
-0.29,-0.23,3482
-0.315,-0.25,3483
-0.325,-0.24,3484
-0.32,-0.225,3485
-0.29,-0.21,3486
-0.28,-0.21,3487
-0.26,-0.23,3488
-0.26,-0.235,3489
-0.265,-0.24,3490
-0.26,-0.21,3491
-0.25,-0.195,3492
-0.23,-0.195,3493
-0.22,-0.19,3494
-0.22,-0.2,3495
-0.235,-0.195,3496
-0.22,-0.18,3497
-0.205,-0.18,3498
-0.205,-0.19,3499
-0.21,-0.19,3500
-0.21,-0.18,3501
-0.23,-0.185,3502
-0.24,-0.165,3503
-0.23,-0.165,3504
-0.225,-0.175,3505
-0.235,-0.185,3506
-0.25,-0.2,3507
-0.265,-0.195,3508
-0.26,-0.185,3509
-0.245,-0.18,3510
-0.215,-0.195,3511
-0.215,-0.195,3512
-0.245,-0.215,3513
-0.28,-0.2,3514
-0.275,-0.21,3515
-0.275,-0.195,3516
-0.295,-0.225,3517
-0.31,-0.235,3518
-0.325,-0.245,3519
-0.34,-0.245,3520
-0.34,-0.22,3521
-0.325,-0.23,3522
-0.315,-0.22,3523
-0.31,-0.225,3524
-0.315,-0.24,3525
-0.33,-0.225,3526
-0.33,-0.21,3527
-0.325,-0.22,3528
-0.325,-0.23,3529
-0.335,-0.23,3530
-0.345,-0.24,3531
-0.35,-0.245,3532
-0.35,-0.245,3533
-0.35,-0.24,3534
-0.345,-0.235,3535
-0.35,-0.24,3536
-0.365,-0.255,3537
-0.36,-0.255,3538
-0.35,-0.25,3539
-0.355,-0.23,3540
-0.345,-0.24,3541
-0.345,-0.25,3542
-0.35,-0.265,3543
-0.365,-0.29,3544
-0.38,-0.31,3545
-0.405,-0.305,3546
-0.425,-0.335,3547
-0.44,-0.355,3548
-0.47,-0.335,3549
-0.52,-0.27,3550
-0.54,-0.16,3551
-0.49,-0.05,3552
-0.39,0.01,3553
-0.26,0.065,3554
-0.115,0.135,3555
0.085,0.24,3556
0.36,0.355,3557
0.615,0.395,3558
0.78,0.255,3559
0.835,-0.015,3560
0.72,-0.295,3561
0.41,-0.405,3562
0.03,-0.39,3563
-0.255,-0.34,3564
-0.415,-0.305,3565
-0.47,-0.31,3566
-0.465,-0.295,3567
-0.435,-0.295,3568
-0.395,-0.28,3569
-0.375,-0.27,3570
-0.37,-0.265,3571
-0.375,-0.285,3572
-0.375,-0.29,3573
-0.39,-0.29,3574
-0.4,-0.29,3575
-0.38,-0.285,3576
-0.385,-0.29,3577
-0.385,-0.29,3578
-0.385,-0.285,3579
-0.385,-0.285,3580
-0.37,-0.285,3581
-0.37,-0.265,3582
-0.36,-0.265,3583
-0.38,-0.275,3584
-0.38,-0.285,3585
-0.385,-0.28,3586
-0.37,-0.27,3587
-0.37,-0.27,3588
-0.365,-0.275,3589
-0.375,-0.27,3590
-0.385,-0.285,3591
-0.39,-0.3,3592
-0.39,-0.28,3593
-0.385,-0.275,3594
-0.385,-0.285,3595
-0.395,-0.285,3596
-0.39,-0.295,3597
-0.4,-0.29,3598
-0.405,-0.285,3599
-0.39,-0.275,3600
-0.395,-0.265,3601
-0.39,-0.285,3602
-0.405,-0.3,3603
-0.405,-0.305,3604
-0.4,-0.285,3605
-0.375,-0.27,3606
-0.38,-0.28,3607
-0.39,-0.275,3608
-0.395,-0.29,3609
-0.395,-0.28,3610
-0.39,-0.29,3611
-0.39,-0.28,3612
-0.385,-0.28,3613
-0.405,-0.285,3614
-0.4,-0.285,3615
-0.405,-0.285,3616
-0.395,-0.295,3617
-0.39,-0.275,3618
-0.395,-0.28,3619
-0.39,-0.29,3620
-0.4,-0.295,3621
-0.405,-0.295,3622
-0.405,-0.285,3623
-0.39,-0.275,3624
-0.39,-0.295,3625
-0.395,-0.305,3626
-0.4,-0.305,3627
-0.4,-0.32,3628
-0.395,-0.305,3629
-0.38,-0.295,3630
-0.37,-0.3,3631
-0.38,-0.3,3632
-0.385,-0.32,3633
-0.395,-0.32,3634
-0.39,-0.31,3635
-0.38,-0.305,3636
-0.38,-0.315,3637
-0.385,-0.33,3638
-0.39,-0.345,3639
-0.39,-0.355,3640
-0.4,-0.34,3641
-0.4,-0.335,3642
-0.405,-0.35,3643
-0.415,-0.37,3644
-0.42,-0.38,3645
-0.43,-0.38,3646
-0.43,-0.375,3647
-0.425,-0.385,3648
-0.42,-0.405,3649
-0.43,-0.405,3650
-0.445,-0.42,3651
-0.465,-0.43,3652
-0.455,-0.415,3653
-0.44,-0.41,3654
-0.425,-0.415,3655
-0.435,-0.425,3656
-0.45,-0.425,3657
-0.44,-0.425,3658
-0.445,-0.405,3659
-0.425,-0.385,3660
-0.425,-0.39,3661
-0.425,-0.385,3662
-0.43,-0.385,3663
-0.43,-0.38,3664
-0.415,-0.35,3665
-0.415,-0.32,3666
-0.385,-0.315,3667
-0.375,-0.315,3668
-0.385,-0.305,3669
-0.37,-0.305,3670
-0.36,-0.27,3671
-0.35,-0.25,3672
-0.335,-0.235,3673
-0.335,-0.235,3674
-0.325,-0.245,3675
-0.32,-0.24,3676
-0.325,-0.235,3677
-0.305,-0.215,3678
-0.295,-0.22,3679
-0.3,-0.22,3680
-0.29,-0.225,3681
-0.295,-0.22,3682
-0.29,-0.215,3683
-0.29,-0.205,3684
-0.285,-0.215,3685
-0.285,-0.215,3686
-0.285,-0.225,3687
-0.29,-0.225,3688
-0.29,-0.215,3689
-0.285,-0.19,3690
-0.27,-0.195,3691
-0.27,-0.21,3692
-0.28,-0.205,3693
-0.29,-0.205,3694
-0.285,-0.2,3695
-0.275,-0.205,3696
-0.275,-0.205,3697
-0.275,-0.205,3698
-0.29,-0.215,3699
-0.305,-0.21,3700
-0.305,-0.21,3701
-0.3,-0.2,3702
-0.28,-0.2,3703
-0.29,-0.205,3704
-0.305,-0.22,3705
-0.315,-0.21,3706
-0.31,-0.2,3707
-0.295,-0.2,3708
-0.29,-0.195,3709
-0.3,-0.215,3710
-0.305,-0.215,3711
-0.305,-0.22,3712
-0.31,-0.21,3713
-0.3,-0.21,3714
-0.295,-0.21,3715
-0.305,-0.215,3716
-0.305,-0.225,3717
-0.315,-0.23,3718
-0.31,-0.215,3719
-0.31,-0.215,3720
-0.295,-0.215,3721
-0.3,-0.22,3722
-0.305,-0.23,3723
-0.31,-0.22,3724
-0.305,-0.205,3725
-0.305,-0.2,3726
-0.295,-0.22,3727
-0.3,-0.225,3728
-0.315,-0.24,3729
-0.325,-0.23,3730
-0.32,-0.23,3731
-0.32,-0.215,3732
-0.315,-0.225,3733
-0.31,-0.22,3734
-0.325,-0.235,3735
-0.335,-0.225,3736
-0.33,-0.225,3737
-0.32,-0.21,3738
-0.32,-0.225,3739
-0.31,-0.225,3740
-0.33,-0.225,3741
-0.33,-0.23,3742
-0.325,-0.22,3743
-0.31,-0.21,3744
-0.305,-0.22,3745
-0.305,-0.215,3746
-0.32,-0.23,3747
-0.33,-0.235,3748
-0.325,-0.215,3749
-0.3,-0.21,3750
-0.31,-0.215,3751
-0.305,-0.225,3752
-0.315,-0.225,3753
-0.33,-0.235,3754
-0.33,-0.23,3755
-0.33,-0.215,3756
-0.32,-0.225,3757
-0.325,-0.22,3758
-0.325,-0.23,3759
-0.335,-0.225,3760
-0.325,-0.22,3761
-0.315,-0.21,3762
-0.31,-0.215,3763
-0.315,-0.22,3764
-0.32,-0.22,3765
-0.325,-0.225,3766
-0.315,-0.21,3767
-0.31,-0.205,3768
-0.305,-0.215,3769
-0.31,-0.225,3770
-0.315,-0.23,3771
-0.32,-0.24,3772
-0.315,-0.225,3773
-0.31,-0.205,3774
-0.295,-0.215,3775
-0.295,-0.215,3776
-0.305,-0.22,3777
-0.31,-0.23,3778
-0.3,-0.225,3779
-0.28,-0.215,3780
-0.275,-0.225,3781
-0.265,-0.22,3782
-0.275,-0.22,3783
-0.275,-0.225,3784
-0.26,-0.195,3785
-0.24,-0.195,3786
-0.24,-0.205,3787
-0.235,-0.2,3788
-0.24,-0.2,3789
-0.235,-0.195,3790
-0.225,-0.19,3791
-0.215,-0.17,3792
-0.205,-0.17,3793
-0.205,-0.18,3794
-0.21,-0.18,3795
-0.215,-0.185,3796
-0.22,-0.17,3797
-0.22,-0.165,3798
-0.215,-0.18,3799
-0.22,-0.175,3800
-0.22,-0.185,3801
-0.23,-0.175,3802
-0.23,-0.17,3803
-0.24,-0.15,3804
-0.21,-0.15,3805
-0.22,-0.155,3806
-0.23,-0.18,3807
-0.255,-0.18,3808
-0.235,-0.17,3809
-0.21,-0.175,3810
-0.19,-0.18,3811
-0.205,-0.19,3812
-0.225,-0.195,3813
-0.26,-0.2,3814
-0.275,-0.19,3815
-0.28,-0.185,3816
-0.285,-0.2,3817
-0.305,-0.195,3818
-0.32,-0.215,3819
-0.315,-0.21,3820
-0.335,-0.2,3821
-0.325,-0.195,3822
-0.335,-0.205,3823
-0.32,-0.22,3824
-0.325,-0.215,3825
-0.32,-0.225,3826
-0.325,-0.225,3827
-0.325,-0.21,3828
-0.31,-0.205,3829
-0.305,-0.21,3830
-0.32,-0.225,3831
-0.32,-0.23,3832
-0.33,-0.215,3833
-0.32,-0.2,3834
-0.32,-0.215,3835
-0.33,-0.22,3836
-0.33,-0.225,3837
-0.36,-0.21,3838
-0.355,-0.21,3839
-0.33,-0.2,3840
-0.325,-0.21,3841
-0.325,-0.215,3842
-0.335,-0.225,3843
-0.35,-0.235,3844
-0.34,-0.24,3845
-0.345,-0.255,3846
-0.355,-0.29,3847
-0.385,-0.31,3848
-0.425,-0.335,3849
-0.45,-0.36,3850
-0.47,-0.35,3851
-0.485,-0.285,3852
-0.51,-0.175,3853
-0.515,-0.05,3854
-0.455,0.075,3855
-0.325,0.19,3856
-0.165,0.315,3857
0.01,0.43,3858
0.25,0.545,3859
0.515,0.655,3860
0.74,0.655,3861
0.885,0.505,3862
0.935,0.21,3863
0.835,-0.09,3864
0.525,-0.275,3865
0.12,-0.29,3866
-0.23,-0.265,3867
-0.425,-0.25,3868
-0.455,-0.255,3869
-0.42,-0.23,3870
-0.38,-0.23,3871
-0.36,-0.25,3872
-0.365,-0.255,3873
-0.375,-0.255,3874
-0.38,-0.25,3875
-0.355,-0.235,3876
-0.355,-0.25,3877
-0.37,-0.25,3878
-0.375,-0.265,3879
-0.385,-0.255,3880
-0.38,-0.25,3881
-0.365,-0.24,3882
-0.37,-0.245,3883
-0.37,-0.255,3884
-0.365,-0.255,3885
-0.38,-0.265,3886
-0.37,-0.24,3887
-0.375,-0.24,3888
-0.365,-0.255,3889
-0.37,-0.255,3890
-0.38,-0.265,3891
-0.375,-0.26,3892
-0.365,-0.25,3893
-0.36,-0.255,3894
-0.36,-0.255,3895
-0.355,-0.255,3896
-0.355,-0.255,3897
-0.37,-0.25,3898
-0.365,-0.245,3899
-0.355,-0.225,3900
-0.35,-0.23,3901
-0.35,-0.245,3902
-0.35,-0.255,3903
-0.36,-0.26,3904
-0.36,-0.245,3905
-0.36,-0.245,3906
-0.35,-0.245,3907
-0.355,-0.24,3908
-0.365,-0.25,3909
-0.37,-0.245,3910
-0.36,-0.245,3911
-0.35,-0.24,3912
-0.355,-0.24,3913
-0.35,-0.25,3914
-0.355,-0.265,3915
-0.37,-0.255,3916
-0.375,-0.24,3917
-0.36,-0.24,3918
-0.35,-0.24,3919
-0.345,-0.255,3920
-0.35,-0.26,3921
-0.37,-0.26,3922
-0.37,-0.255,3923
-0.355,-0.255,3924
-0.35,-0.25,3925
-0.345,-0.26,3926
-0.36,-0.275,3927
-0.37,-0.28,3928
-0.365,-0.28,3929
-0.36,-0.27,3930
-0.35,-0.265,3931
-0.355,-0.285,3932
-0.365,-0.29,3933
-0.365,-0.28,3934
-0.37,-0.28,3935
-0.365,-0.275,3936
-0.35,-0.295,3937
-0.35,-0.305,3938
-0.36,-0.31,3939
-0.36,-0.31,3940
-0.355,-0.32,3941
-0.345,-0.305,3942
-0.35,-0.32,3943
-0.345,-0.345,3944
-0.355,-0.35,3945
-0.37,-0.355,3946
-0.365,-0.355,3947
-0.355,-0.35,3948
-0.36,-0.35,3949
-0.365,-0.36,3950
-0.365,-0.38,3951
-0.38,-0.385,3952
-0.385,-0.38,3953
-0.375,-0.38,3954
-0.37,-0.375,3955
-0.375,-0.385,3956
-0.385,-0.395,3957
-0.395,-0.38,3958
-0.375,-0.39,3959
-0.385,-0.38,3960
-0.38,-0.385,3961
-0.37,-0.38,3962
-0.385,-0.375,3963
-0.385,-0.37,3964
-0.38,-0.335,3965
-0.37,-0.315,3966
-0.36,-0.31,3967
-0.35,-0.3,3968
-0.335,-0.31,3969
-0.33,-0.285,3970
-0.315,-0.26,3971
-0.295,-0.225,3972
-0.29,-0.225,3973
-0.29,-0.22,3974
-0.285,-0.23,3975
-0.29,-0.215,3976
-0.28,-0.205,3977
-0.28,-0.195,3978
-0.26,-0.185,3979
-0.255,-0.195,3980
-0.27,-0.19,3981
-0.275,-0.18,3982
-0.26,-0.17,3983
-0.25,-0.15,3984
-0.245,-0.16,3985
-0.25,-0.175,3986
-0.26,-0.185,3987
-0.265,-0.175,3988
-0.245,-0.17,3989
-0.235,-0.16,3990
-0.245,-0.165,3991
-0.24,-0.165,3992
-0.25,-0.18,3993
-0.265,-0.175,3994
-0.25,-0.17,3995
-0.25,-0.165,3996
-0.25,-0.17,3997
-0.25,-0.18,3998
-0.255,-0.185,3999
-0.265,-0.19,4000
-0.26,-0.17,4001
-0.24,-0.155,4002
-0.25,-0.16,4003
-0.245,-0.165,4004
-0.25,-0.175,4005
-0.27,-0.18,4006
-0.265,-0.17,4007
-0.27,-0.165,4008
-0.265,-0.165,4009
-0.265,-0.175,4010
-0.275,-0.185,4011
-0.285,-0.19,4012
-0.275,-0.19,4013
-0.265,-0.175,4014
-0.27,-0.19,4015
-0.27,-0.18,4016
-0.28,-0.195,4017
-0.285,-0.195,4018
-0.285,-0.18,4019
-0.28,-0.18,4020
-0.285,-0.19,4021
-0.28,-0.205,4022
-0.285,-0.215,4023
-0.3,-0.215,4024
-0.29,-0.21,4025
-0.285,-0.19,4026
-0.27,-0.185,4027
-0.28,-0.2,4028
-0.295,-0.205,4029
-0.29,-0.225,4030
-0.29,-0.205,4031
-0.295,-0.2,4032
-0.29,-0.205,4033
-0.285,-0.205,4034
-0.305,-0.215,4035
-0.315,-0.215,4036
-0.31,-0.2,4037
-0.31,-0.2,4038
-0.29,-0.21,4039
-0.295,-0.21,4040
-0.31,-0.23,4041
-0.32,-0.215,4042
-0.315,-0.22,4043
-0.31,-0.205,4044
-0.3,-0.205,4045
-0.3,-0.22,4046
-0.315,-0.235,4047
-0.32,-0.225,4048
-0.315,-0.22,4049
-0.32,-0.21,4050
-0.29,-0.215,4051
-0.3,-0.22,4052
-0.3,-0.23,4053
-0.315,-0.22,4054
-0.31,-0.22,4055
-0.3,-0.215,4056
-0.3,-0.21,4057
-0.29,-0.235,4058
-0.31,-0.225,4059
-0.325,-0.22,4060
-0.315,-0.22,4061
-0.305,-0.2,4062
-0.305,-0.22,4063
-0.305,-0.215,4064
-0.315,-0.235,4065
-0.325,-0.23,4066
-0.32,-0.225,4067
-0.31,-0.21,4068
-0.3,-0.215,4069
-0.295,-0.22,4070
-0.315,-0.225,4071
-0.32,-0.215,4072
-0.305,-0.21,4073
-0.3,-0.2,4074
-0.29,-0.21,4075
-0.295,-0.22,4076
-0.295,-0.225,4077
-0.31,-0.225,4078
-0.295,-0.225,4079
-0.295,-0.21,4080
-0.285,-0.205,4081
-0.295,-0.21,4082
-0.295,-0.23,4083
-0.31,-0.225,4084
-0.3,-0.215,4085
-0.285,-0.21,4086
-0.28,-0.21,4087
-0.275,-0.225,4088
-0.28,-0.225,4089
-0.265,-0.225,4090
-0.245,-0.205,4091
-0.23,-0.2,4092
-0.24,-0.21,4093
-0.24,-0.22,4094
-0.24,-0.21,4095
-0.245,-0.215,4096
-0.22,-0.19,4097
-0.22,-0.19,4098
-0.215,-0.185,4099
-0.2,-0.185,4100
-0.2,-0.185,4101
-0.21,-0.2,4102
-0.205,-0.185,4103
-0.195,-0.17,4104
-0.205,-0.17,4105
-0.21,-0.155,4106
-0.215,-0.16,4107
-0.225,-0.16,4108
-0.225,-0.175,4109
-0.2,-0.165,4110
-0.2,-0.16,4111
-0.21,-0.16,4112
-0.225,-0.165,4113
-0.22,-0.17,4114
-0.195,-0.165,4115
-0.18,-0.16,4116
-0.175,-0.175,4117
-0.205,-0.195,4118
-0.245,-0.2,4119
-0.265,-0.205,4120
-0.275,-0.195,4121
-0.28,-0.195,4122
-0.285,-0.205,4123
-0.3,-0.2,4124
-0.31,-0.22,4125
-0.325,-0.225,4126
-0.32,-0.22,4127
-0.325,-0.21,4128
-0.31,-0.215,4129
-0.325,-0.22,4130
-0.33,-0.23,4131
-0.34,-0.24,4132
-0.335,-0.215,4133
-0.33,-0.215,4134
-0.325,-0.225,4135
-0.32,-0.235,4136
-0.34,-0.24,4137
-0.345,-0.25,4138
-0.34,-0.23,4139
-0.33,-0.205,4140
-0.335,-0.225,4141
-0.33,-0.23,4142
-0.34,-0.24,4143
-0.34,-0.25,4144
-0.335,-0.23,4145
-0.335,-0.215,4146
-0.33,-0.23,4147
-0.335,-0.255,4148
-0.345,-0.28,4149
-0.375,-0.305,4150
-0.395,-0.315,4151
-0.43,-0.325,4152
-0.44,-0.33,4153
-0.45,-0.35,4154
-0.45,-0.375,4155
-0.475,-0.415,4156
-0.48,-0.415,4157
-0.51,-0.375,4158
-0.55,-0.32,4159
-0.575,-0.235,4160
-0.545,-0.125,4161
-0.49,0.0,4162
-0.375,0.115,4163
-0.25,0.205,4164
-0.12,0.315,4165
0.06,0.42,4166
0.285,0.525,4167
0.525,0.61,4168
0.74,0.615,4169
0.86,0.47,4170
0.89,0.135,4171
0.73,-0.165,4172
0.425,-0.325,4173
0.015,-0.305,4174
-0.285,-0.27,4175
-0.435,-0.26,4176
-0.45,-0.26,4177
-0.435,-0.25,4178
-0.385,-0.27,4179
-0.38,-0.275,4180
-0.37,-0.26,4181
-0.37,-0.26,4182
-0.37,-0.275,4183
-0.36,-0.27,4184
-0.36,-0.27,4185
-0.37,-0.27,4186
-0.385,-0.265,4187
-0.365,-0.26,4188
-0.36,-0.27,4189
-0.365,-0.27,4190
-0.365,-0.28,4191
-0.375,-0.285,4192
-0.385,-0.265,4193
-0.36,-0.255,4194
-0.365,-0.26,4195
-0.355,-0.27,4196
-0.375,-0.275,4197
-0.38,-0.285,4198
-0.375,-0.27,4199
-0.355,-0.265,4200
-0.355,-0.265,4201
-0.36,-0.26,4202
-0.365,-0.275,4203
-0.38,-0.27,4204
-0.37,-0.265,4205
-0.355,-0.255,4206
-0.35,-0.26,4207
-0.355,-0.255,4208
-0.365,-0.275,4209
-0.38,-0.265,4210
-0.365,-0.26,4211
-0.355,-0.255,4212
-0.355,-0.255,4213
-0.365,-0.26,4214
-0.385,-0.265,4215
-0.39,-0.28,4216
-0.375,-0.26,4217
-0.355,-0.24,4218
-0.365,-0.25,4219
-0.36,-0.265,4220
-0.355,-0.27,4221
-0.365,-0.28,4222
-0.365,-0.265,4223
-0.355,-0.25,4224
-0.345,-0.255,4225
-0.345,-0.26,4226
-0.365,-0.27,4227
-0.36,-0.28,4228
-0.375,-0.275,4229
-0.355,-0.26,4230
-0.36,-0.27,4231
-0.365,-0.285,4232
-0.365,-0.28,4233
-0.37,-0.28,4234
-0.36,-0.275,4235
-0.355,-0.28,4236
-0.36,-0.275,4237
-0.365,-0.27,4238
-0.385,-0.295,4239
-0.38,-0.305,4240
-0.365,-0.295,4241
-0.355,-0.28,4242
-0.335,-0.3,4243
-0.36,-0.31,4244
-0.36,-0.31,4245
-0.385,-0.315,4246
-0.38,-0.315,4247
-0.375,-0.31,4248
-0.36,-0.315,4249
-0.36,-0.33,4250
-0.365,-0.35,4251
-0.375,-0.35,4252
-0.365,-0.355,4253
-0.355,-0.335,4254
-0.36,-0.345,4255
-0.35,-0.355,4256
-0.36,-0.37,4257
-0.37,-0.375,4258
-0.37,-0.385,4259
-0.365,-0.38,4260
-0.37,-0.39,4261
-0.38,-0.39,4262
-0.39,-0.405,4263
-0.385,-0.41,4264
-0.38,-0.395,4265
-0.37,-0.395,4266
-0.37,-0.395,4267
-0.365,-0.4,4268
-0.365,-0.41,4269
-0.39,-0.405,4270
-0.375,-0.385,4271
-0.37,-0.375,4272
-0.355,-0.365,4273
-0.365,-0.365,4274
-0.36,-0.365,4275
-0.37,-0.355,4276
-0.35,-0.325,4277
-0.34,-0.295,4278
-0.325,-0.295,4279
-0.32,-0.265,4280
-0.315,-0.28,4281
-0.325,-0.275,4282
-0.31,-0.245,4283
-0.295,-0.23,4284
-0.285,-0.215,4285
-0.29,-0.21,4286
-0.29,-0.225,4287
-0.275,-0.215,4288
-0.27,-0.21,4289
-0.265,-0.195,4290
-0.26,-0.19,4291
-0.26,-0.215,4292
-0.275,-0.195,4293
-0.275,-0.21,4294
-0.285,-0.18,4295
-0.26,-0.18,4296
-0.26,-0.19,4297
-0.265,-0.195,4298
-0.27,-0.2,4299
-0.28,-0.2,4300
-0.275,-0.19,4301
-0.255,-0.17,4302
-0.255,-0.18,4303
-0.245,-0.195,4304
-0.255,-0.195,4305
-0.26,-0.21,4306
-0.255,-0.2,4307
-0.255,-0.195,4308
-0.26,-0.185,4309
-0.265,-0.19,4310
-0.28,-0.215,4311
-0.295,-0.21,4312
-0.29,-0.21,4313
-0.275,-0.2,4314
-0.28,-0.205,4315
-0.28,-0.215,4316
-0.28,-0.215,4317
-0.285,-0.225,4318
-0.285,-0.215,4319
-0.28,-0.195,4320
-0.27,-0.205,4321
-0.285,-0.22,4322
-0.3,-0.24,4323
-0.31,-0.24,4324
-0.3,-0.22,4325
-0.29,-0.21,4326
-0.28,-0.215,4327
-0.3,-0.215,4328
-0.29,-0.22,4329
-0.31,-0.235,4330
-0.3,-0.225,4331
-0.295,-0.22,4332
-0.29,-0.225,4333
-0.285,-0.23,4334
-0.295,-0.235,4335
-0.325,-0.245,4336
-0.315,-0.225,4337
-0.31,-0.22,4338
-0.305,-0.23,4339
-0.3,-0.245,4340
-0.315,-0.26,4341
-0.33,-0.26,4342
-0.32,-0.25,4343
-0.32,-0.23,4344
-0.315,-0.24,4345
-0.32,-0.245,4346
-0.325,-0.25,4347
-0.335,-0.25,4348
-0.33,-0.24,4349
-0.325,-0.235,4350
-0.31,-0.245,4351
-0.315,-0.24,4352
-0.315,-0.255,4353
-0.335,-0.255,4354
-0.32,-0.25,4355
-0.31,-0.25,4356
-0.315,-0.25,4357
-0.31,-0.26,4358
-0.32,-0.26,4359
-0.335,-0.25,4360
-0.325,-0.245,4361
-0.325,-0.23,4362
-0.315,-0.235,4363
-0.31,-0.24,4364
-0.32,-0.24,4365
-0.33,-0.25,4366
-0.32,-0.24,4367
-0.32,-0.24,4368
-0.31,-0.26,4369
-0.33,-0.255,4370
-0.33,-0.27,4371
-0.345,-0.27,4372
-0.34,-0.255,4373
-0.33,-0.255,4374
-0.32,-0.24,4375
-0.315,-0.245,4376
-0.335,-0.24,4377
-0.335,-0.24,4378
-0.33,-0.245,4379
-0.31,-0.235,4380
-0.31,-0.235,4381
-0.315,-0.245,4382
-0.33,-0.27,4383
-0.32,-0.26,4384
-0.315,-0.25,4385
-0.3,-0.25,4386
-0.285,-0.255,4387
-0.28,-0.25,4388
-0.265,-0.27,4389
-0.26,-0.27,4390
-0.265,-0.25,4391
-0.26,-0.23,4392
-0.255,-0.235,4393
-0.26,-0.24,4394
-0.25,-0.235,4395
-0.255,-0.235,4396
-0.24,-0.23,4397
-0.23,-0.225,4398
-0.205,-0.215,4399
-0.21,-0.235,4400
-0.225,-0.225,4401
-0.235,-0.22,4402
-0.225,-0.205,4403
-0.225,-0.205,4404
-0.23,-0.205,4405
-0.225,-0.205,4406
-0.24,-0.21,4407
-0.24,-0.225,4408
-0.23,-0.21,4409
-0.235,-0.195,4410
-0.25,-0.2,4411
-0.25,-0.215,4412
-0.255,-0.235,4413
-0.235,-0.23,4414
-0.22,-0.225,4415
-0.205,-0.225,4416
-0.215,-0.245,4417
-0.24,-0.25,4418
-0.265,-0.26,4419
-0.28,-0.265,4420
-0.28,-0.23,4421
-0.27,-0.235,4422
-0.27,-0.24,4423
-0.29,-0.25,4424
-0.32,-0.28,4425
-0.335,-0.27,4426
-0.34,-0.265,4427
-0.33,-0.255,4428
-0.33,-0.265,4429
-0.335,-0.275,4430
-0.35,-0.28,4431
-0.36,-0.29,4432
-0.35,-0.275,4433
-0.35,-0.265,4434
-0.345,-0.27,4435
-0.35,-0.27,4436
-0.355,-0.28,4437
-0.365,-0.28,4438
-0.36,-0.27,4439
-0.355,-0.265,4440
-0.35,-0.28,4441
-0.34,-0.285,4442
-0.36,-0.295,4443
-0.37,-0.295,4444
-0.37,-0.28,4445
-0.355,-0.265,4446
-0.345,-0.28,4447
-0.35,-0.3,4448
-0.37,-0.325,4449
-0.385,-0.355,4450
-0.41,-0.36,4451
-0.44,-0.355,4452
-0.46,-0.385,4453
-0.49,-0.4,4454
-0.54,-0.355,4455
-0.565,-0.27,4456
-0.55,-0.17,4457
-0.485,-0.075,4458
-0.365,-0.01,4459
-0.255,0.05,4460
-0.125,0.135,4461
0.09,0.255,4462
0.36,0.36,4463
0.6,0.39,4464
0.75,0.275,4465
0.795,0.04,4466
0.7,-0.225,4467
0.44,-0.4,4468
0.095,-0.41,4469
-0.185,-0.36,4470
-0.37,-0.345,4471
-0.47,-0.34,4472
-0.49,-0.345,4473
-0.47,-0.345,4474
-0.44,-0.33,4475
-0.425,-0.305,4476
-0.41,-0.315,4477
-0.41,-0.315,4478
-0.41,-0.325,4479
-0.42,-0.335,4480
-0.4,-0.33,4481
-0.395,-0.31,4482
-0.405,-0.315,4483
-0.41,-0.32,4484
-0.405,-0.32,4485
-0.42,-0.32,4486
-0.395,-0.32,4487
-0.395,-0.31,4488
-0.39,-0.325,4489
-0.395,-0.33,4490
-0.395,-0.345,4491
-0.41,-0.34,4492
-0.4,-0.32,4493
-0.4,-0.31,4494
-0.41,-0.31,4495
-0.4,-0.32,4496
-0.405,-0.325,4497
-0.41,-0.325,4498
-0.41,-0.315,4499
-0.4,-0.31,4500
-0.39,-0.31,4501
-0.39,-0.315,4502
-0.4,-0.33,4503
-0.4,-0.32,4504
-0.395,-0.315,4505
-0.39,-0.29,4506
-0.385,-0.305,4507
-0.39,-0.305,4508
-0.41,-0.32,4509
-0.41,-0.32,4510
-0.41,-0.325,4511
-0.415,-0.32,4512
-0.41,-0.315,4513
-0.405,-0.32,4514
-0.42,-0.325,4515
-0.42,-0.33,4516
-0.42,-0.315,4517
-0.415,-0.31,4518
-0.41,-0.315,4519
-0.415,-0.33,4520
-0.425,-0.34,4521
-0.425,-0.335,4522
-0.42,-0.315,4523
-0.425,-0.305,4524
-0.42,-0.32,4525
-0.41,-0.325,4526
-0.41,-0.32,4527
-0.415,-0.325,4528
-0.41,-0.33,4529
-0.41,-0.32,4530
-0.4,-0.31,4531
-0.405,-0.325,4532
-0.405,-0.325,4533
-0.425,-0.33,4534
-0.42,-0.325,4535
-0.41,-0.33,4536
-0.4,-0.33,4537
-0.405,-0.335,4538
-0.415,-0.335,4539
-0.42,-0.345,4540
-0.41,-0.335,4541
-0.41,-0.34,4542
-0.4,-0.345,4543
-0.41,-0.35,4544
-0.415,-0.36,4545
-0.42,-0.38,4546
-0.41,-0.365,4547
-0.4,-0.36,4548
-0.39,-0.37,4549
-0.4,-0.38,4550
-0.415,-0.405,4551
-0.42,-0.425,4552
-0.415,-0.42,4553
-0.415,-0.405,4554
-0.4,-0.41,4555
-0.415,-0.425,4556
-0.43,-0.44,4557
-0.45,-0.445,4558
-0.44,-0.44,4559
-0.44,-0.43,4560
-0.435,-0.43,4561
-0.435,-0.44,4562
-0.44,-0.45,4563
-0.45,-0.465,4564
-0.435,-0.44,4565
-0.44,-0.435,4566
-0.43,-0.445,4567
-0.44,-0.465,4568
-0.445,-0.45,4569
-0.445,-0.445,4570
-0.44,-0.42,4571
-0.435,-0.4,4572
-0.42,-0.385,4573
-0.415,-0.38,4574
-0.41,-0.38,4575
-0.405,-0.375,4576
-0.38,-0.365,4577
-0.375,-0.345,4578
-0.37,-0.34,4579
-0.37,-0.34,4580
-0.37,-0.325,4581
-0.36,-0.305,4582
-0.355,-0.28,4583
-0.325,-0.275,4584
-0.305,-0.29,4585
-0.31,-0.305,4586
-0.32,-0.31,4587
-0.325,-0.305,4588
-0.325,-0.29,4589
-0.315,-0.28,4590
-0.3,-0.28,4591
-0.305,-0.27,4592
-0.32,-0.29,4593
-0.33,-0.285,4594
-0.33,-0.29,4595
-0.31,-0.275,4596
-0.31,-0.29,4597
-0.31,-0.295,4598
-0.305,-0.29,4599
-0.31,-0.3,4600
-0.32,-0.28,4601
-0.305,-0.27,4602
-0.3,-0.28,4603
-0.3,-0.285,4604
-0.305,-0.3,4605
-0.32,-0.29,4606
-0.32,-0.285,4607
-0.315,-0.275,4608
-0.315,-0.285,4609
-0.31,-0.3,4610
-0.33,-0.305,4611
-0.335,-0.31,4612
-0.335,-0.295,4613
-0.32,-0.295,4614
-0.315,-0.29,4615
-0.315,-0.295,4616
-0.325,-0.305,4617
-0.33,-0.31,4618
-0.335,-0.305,4619
-0.32,-0.295,4620
-0.3,-0.295,4621
-0.3,-0.3,4622
-0.32,-0.3,4623
-0.32,-0.31,4624
-0.33,-0.32,4625
-0.32,-0.3,4626
-0.32,-0.325,4627
-0.325,-0.325,4628
-0.34,-0.325,4629
-0.355,-0.335,4630
-0.345,-0.33,4631
-0.35,-0.31,4632
-0.345,-0.32,4633
-0.345,-0.325,4634
-0.36,-0.335,4635
-0.36,-0.34,4636
-0.345,-0.325,4637
-0.34,-0.315,4638
-0.34,-0.33,4639
-0.355,-0.33,4640
-0.35,-0.335,4641
-0.35,-0.34,4642
-0.355,-0.335,4643
-0.34,-0.315,4644
-0.335,-0.33,4645
-0.34,-0.345,4646
-0.35,-0.34,4647
-0.355,-0.34,4648
-0.355,-0.33,4649
-0.355,-0.325,4650
-0.345,-0.33,4651
-0.345,-0.34,4652
-0.35,-0.35,4653
-0.36,-0.355,4654
-0.365,-0.335,4655
-0.365,-0.32,4656
-0.35,-0.325,4657
-0.35,-0.33,4658
-0.36,-0.33,4659
-0.37,-0.355,4660
-0.36,-0.34,4661
-0.35,-0.32,4662
-0.335,-0.335,4663
-0.35,-0.335,4664
-0.35,-0.33,4665
-0.345,-0.35,4666
-0.34,-0.335,4667
-0.34,-0.335,4668
-0.34,-0.34,4669
-0.34,-0.34,4670
-0.345,-0.35,4671
-0.35,-0.345,4672
-0.36,-0.325,4673
-0.35,-0.32,4674
-0.335,-0.325,4675
-0.345,-0.345,4676
-0.35,-0.35,4677
-0.35,-0.35,4678
-0.355,-0.345,4679
-0.34,-0.33,4680
-0.335,-0.315,4681
-0.33,-0.33,4682
-0.34,-0.34,4683
-0.355,-0.345,4684
-0.355,-0.34,4685
-0.33,-0.32,4686
-0.315,-0.33,4687
-0.315,-0.34,4688
-0.315,-0.35,4689
-0.32,-0.335,4690
-0.3,-0.325,4691
-0.3,-0.31,4692
-0.28,-0.305,4693
-0.265,-0.32,4694
-0.28,-0.315,4695
-0.285,-0.32,4696
-0.265,-0.31,4697
-0.235,-0.29,4698
-0.23,-0.295,4699
-0.23,-0.305,4700
-0.245,-0.305,4701
-0.255,-0.31,4702
-0.25,-0.295,4703
-0.245,-0.28,4704
-0.25,-0.28,4705
-0.255,-0.285,4706
-0.265,-0.29,4707
-0.27,-0.295,4708
-0.29,-0.29,4709
-0.28,-0.285,4710
-0.275,-0.295,4711
-0.26,-0.3,4712
-0.255,-0.315,4713
-0.26,-0.315,4714
-0.275,-0.305,4715
-0.295,-0.295,4716
-0.3,-0.305,4717
-0.305,-0.31,4718
-0.335,-0.345,4719
-0.355,-0.335,4720
-0.35,-0.34,4721
-0.35,-0.335,4722
-0.35,-0.33,4723
-0.355,-0.33,4724
-0.37,-0.345,4725
-0.37,-0.345,4726
-0.36,-0.34,4727
-0.365,-0.335,4728
-0.355,-0.33,4729
-0.365,-0.335,4730
-0.375,-0.335,4731
-0.385,-0.33,4732
-0.38,-0.325,4733
-0.375,-0.31,4734
-0.355,-0.325,4735
-0.37,-0.325,4736
-0.385,-0.33,4737
-0.39,-0.335,4738
-0.39,-0.335,4739
-0.37,-0.315,4740
-0.36,-0.32,4741
-0.37,-0.33,4742
-0.38,-0.325,4743
-0.385,-0.335,4744
-0.38,-0.325,4745
-0.375,-0.33,4746
-0.37,-0.35,4747
-0.38,-0.375,4748
-0.405,-0.395,4749
-0.445,-0.425,4750
-0.465,-0.425,4751
-0.48,-0.43,4752
-0.485,-0.425,4753
-0.525,-0.365,4754
-0.555,-0.27,4755
-0.535,-0.165,4756
-0.45,-0.065,4757
-0.325,0.015,4758
-0.185,0.08,4759
-0.025,0.18,4760
0.185,0.295,4761
0.43,0.39,4762
0.66,0.405,4763
0.815,0.315,4764
0.85,0.025,4765
0.75,-0.26,4766
0.485,-0.44,4767
0.11,-0.465,4768
-0.21,-0.415,4769
-0.39,-0.375,4770
-0.46,-0.36,4771
-0.485,-0.35,4772
-0.47,-0.35,4773
-0.45,-0.35,4774
-0.425,-0.335,4775
-0.415,-0.325,4776
-0.405,-0.325,4777
-0.415,-0.34,4778
-0.415,-0.33,4779
-0.42,-0.335,4780
-0.4,-0.325,4781
-0.395,-0.325,4782
-0.385,-0.335,4783
-0.395,-0.325,4784
-0.4,-0.35,4785
-0.42,-0.34,4786
-0.41,-0.34,4787
-0.4,-0.31,4788
-0.4,-0.32,4789
-0.405,-0.325,4790
-0.405,-0.345,4791
-0.435,-0.34,4792
-0.42,-0.33,4793
-0.41,-0.315,4794
-0.405,-0.31,4795
-0.415,-0.32,4796
-0.43,-0.335,4797
-0.44,-0.335,4798
-0.435,-0.325,4799
-0.415,-0.315,4800
-0.42,-0.325,4801
-0.43,-0.33,4802
-0.415,-0.325,4803
-0.43,-0.33,4804
-0.425,-0.315,4805
-0.42,-0.32,4806
-0.42,-0.31,4807
-0.415,-0.32,4808
-0.425,-0.335,4809
-0.425,-0.33,4810
-0.42,-0.315,4811
-0.41,-0.315,4812
-0.41,-0.315,4813
-0.41,-0.32,4814
-0.42,-0.33,4815
-0.43,-0.33,4816
-0.42,-0.315,4817
-0.415,-0.31,4818
-0.395,-0.305,4819
-0.405,-0.32,4820
-0.415,-0.335,4821
-0.43,-0.335,4822
-0.42,-0.345,4823
-0.42,-0.325,4824
-0.415,-0.33,4825
-0.42,-0.33,4826
-0.425,-0.335,4827
-0.44,-0.335,4828
-0.43,-0.33,4829
-0.425,-0.325,4830
-0.415,-0.33,4831
-0.42,-0.335,4832
-0.425,-0.355,4833
-0.44,-0.355,4834
-0.43,-0.35,4835
-0.43,-0.33,4836
-0.425,-0.34,4837
-0.42,-0.36,4838
-0.415,-0.365,4839
-0.425,-0.365,4840
-0.43,-0.37,4841
-0.425,-0.35,4842
-0.415,-0.355,4843
-0.405,-0.37,4844
-0.405,-0.38,4845
-0.425,-0.39,4846
-0.415,-0.385,4847
-0.42,-0.38,4848
-0.42,-0.39,4849
-0.42,-0.395,4850
-0.435,-0.42,4851
-0.435,-0.43,4852
-0.44,-0.42,4853
-0.42,-0.41,4854
-0.43,-0.425,4855
-0.45,-0.43,4856
-0.455,-0.45,4857
-0.465,-0.46,4858
-0.465,-0.445,4859
-0.465,-0.455,4860
-0.465,-0.45,4861
-0.465,-0.45,4862
-0.47,-0.47,4863
-0.49,-0.465,4864
-0.485,-0.46,4865
-0.46,-0.44,4866
-0.455,-0.445,4867
-0.46,-0.435,4868
-0.455,-0.42,4869
-0.455,-0.4,4870
-0.44,-0.38,4871
-0.425,-0.365,4872
-0.415,-0.365,4873
-0.4,-0.355,4874
-0.405,-0.34,4875
-0.4,-0.345,4876
-0.385,-0.32,4877
-0.365,-0.3,4878
-0.365,-0.29,4879
-0.36,-0.28,4880
-0.37,-0.295,4881
-0.375,-0.285,4882
-0.355,-0.27,4883
-0.34,-0.26,4884
-0.33,-0.255,4885
-0.33,-0.25,4886
-0.33,-0.25,4887
-0.34,-0.255,4888
-0.335,-0.245,4889
-0.32,-0.245,4890
-0.305,-0.235,4891
-0.315,-0.245,4892
-0.32,-0.24,4893
-0.32,-0.25,4894
-0.32,-0.24,4895
-0.315,-0.23,4896
-0.31,-0.235,4897
-0.31,-0.24,4898
-0.315,-0.26,4899
-0.33,-0.25,4900
-0.32,-0.24,4901
-0.32,-0.23,4902
-0.31,-0.235,4903
-0.32,-0.235,4904
-0.33,-0.265,4905
-0.34,-0.265,4906
-0.33,-0.255,4907
-0.325,-0.245,4908
-0.325,-0.245,4909
-0.32,-0.25,4910
-0.34,-0.27,4911
-0.35,-0.27,4912
-0.34,-0.255,4913
-0.32,-0.25,4914
-0.315,-0.255,4915
-0.325,-0.255,4916
-0.34,-0.26,4917
-0.345,-0.255,4918
-0.345,-0.255,4919
-0.34,-0.25,4920
-0.33,-0.255,4921
-0.335,-0.27,4922
-0.345,-0.275,4923
-0.36,-0.28,4924
-0.355,-0.25,4925
-0.34,-0.25,4926
-0.33,-0.255,4927
-0.335,-0.27,4928
-0.345,-0.275,4929
-0.365,-0.275,4930
-0.37,-0.27,4931
-0.35,-0.26,4932
-0.34,-0.26,4933
-0.335,-0.265,4934
-0.36,-0.28,4935
-0.355,-0.28,4936
-0.34,-0.265,4937
-0.335,-0.255,4938
-0.335,-0.26,4939
-0.32,-0.28,4940
-0.335,-0.275,4941
-0.355,-0.28,4942
-0.35,-0.265,4943
-0.345,-0.255,4944
-0.34,-0.27,4945
-0.335,-0.265,4946
-0.35,-0.285,4947
-0.37,-0.285,4948
-0.36,-0.27,4949
-0.355,-0.26,4950
-0.35,-0.265,4951
-0.345,-0.26,4952
-0.365,-0.28,4953
-0.36,-0.27,4954
-0.36,-0.275,4955
-0.35,-0.265,4956
-0.345,-0.255,4957
-0.355,-0.275,4958
-0.355,-0.28,4959
-0.365,-0.275,4960
-0.36,-0.27,4961
-0.345,-0.26,4962
-0.345,-0.265,4963
-0.35,-0.26,4964
-0.355,-0.27,4965
-0.36,-0.28,4966
-0.355,-0.26,4967
-0.35,-0.255,4968
-0.335,-0.26,4969
-0.335,-0.27,4970
-0.355,-0.27,4971
-0.345,-0.275,4972
-0.34,-0.265,4973
-0.33,-0.25,4974
-0.34,-0.25,4975
-0.345,-0.26,4976
-0.35,-0.265,4977
-0.355,-0.275,4978
-0.35,-0.265,4979
-0.335,-0.255,4980
-0.33,-0.25,4981
-0.33,-0.265,4982
-0.33,-0.26,4983
-0.33,-0.265,4984
-0.305,-0.25,4985
-0.285,-0.235,4986
-0.275,-0.26,4987
-0.28,-0.26,4988
-0.285,-0.25,4989
-0.29,-0.25,4990
-0.275,-0.24,4991
-0.26,-0.22,4992
-0.245,-0.215,4993
-0.24,-0.23,4994
-0.24,-0.24,4995
-0.24,-0.225,4996
-0.235,-0.22,4997
-0.225,-0.195,4998
-0.22,-0.2,4999
-0.23,-0.21,5000
-0.24,-0.2,5001
-0.255,-0.215,5002
-0.255,-0.19,5003
-0.24,-0.195,5004
-0.24,-0.195,5005
-0.25,-0.19,5006
-0.27,-0.21,5007
-0.27,-0.21,5008
-0.24,-0.2,5009
-0.23,-0.21,5010
-0.225,-0.225,5011
-0.265,-0.22,5012
-0.295,-0.23,5013
-0.305,-0.235,5014
-0.325,-0.225,5015
-0.315,-0.22,5016
-0.325,-0.235,5017
-0.33,-0.24,5018
-0.345,-0.23,5019
-0.36,-0.25,5020
-0.365,-0.255,5021
-0.355,-0.245,5022
-0.345,-0.24,5023
-0.34,-0.245,5024
-0.335,-0.25,5025
-0.36,-0.255,5026
-0.355,-0.24,5027
-0.345,-0.235,5028
-0.335,-0.24,5029
-0.355,-0.245,5030
-0.35,-0.255,5031
-0.375,-0.26,5032
-0.375,-0.255,5033
-0.365,-0.23,5034
-0.365,-0.24,5035
-0.35,-0.245,5036
-0.37,-0.255,5037
-0.38,-0.265,5038
-0.365,-0.265,5039
-0.37,-0.25,5040
-0.355,-0.245,5041
-0.37,-0.25,5042
-0.38,-0.27,5043
-0.385,-0.3,5044
-0.385,-0.32,5045
-0.4,-0.33,5046
-0.43,-0.355,5047
-0.465,-0.385,5048
-0.485,-0.37,5049
-0.52,-0.32,5050
-0.555,-0.19,5051
-0.525,-0.05,5052
-0.435,0.075,5053
-0.305,0.19,5054
-0.155,0.305,5055
0.01,0.435,5056
0.26,0.57,5057
0.535,0.66,5058
0.76,0.645,5059
0.89,0.455,5060
0.905,0.12,5061
0.705,-0.175,5062
0.36,-0.295,5063
-0.03,-0.26,5064
-0.32,-0.255,5065
-0.455,-0.275,5066
-0.475,-0.28,5067
-0.44,-0.28,5068
-0.395,-0.275,5069
-0.38,-0.28,5070
-0.38,-0.28,5071
-0.385,-0.285,5072
-0.395,-0.295,5073
-0.4,-0.3,5074
-0.405,-0.29,5075
-0.395,-0.285,5076
-0.41,-0.295,5077
-0.39,-0.3,5078
-0.395,-0.31,5079
-0.405,-0.295,5080
-0.405,-0.305,5081
-0.395,-0.29,5082
-0.385,-0.285,5083
-0.385,-0.3,5084
-0.405,-0.305,5085
-0.405,-0.3,5086
-0.4,-0.29,5087
-0.385,-0.285,5088
-0.38,-0.29,5089
-0.385,-0.29,5090
-0.405,-0.295,5091
-0.41,-0.29,5092
-0.4,-0.29,5093
-0.395,-0.285,5094
-0.385,-0.285,5095
-0.395,-0.29,5096
-0.41,-0.31,5097
-0.405,-0.305,5098
-0.405,-0.285,5099
-0.395,-0.28,5100
-0.39,-0.28,5101
-0.395,-0.285,5102
-0.395,-0.295,5103
-0.405,-0.305,5104
-0.41,-0.29,5105
-0.4,-0.27,5106
-0.385,-0.28,5107
-0.395,-0.28,5108
-0.4,-0.295,5109
-0.395,-0.305,5110
-0.385,-0.295,5111
-0.385,-0.28,5112
-0.375,-0.28,5113
-0.375,-0.285,5114
-0.38,-0.295,5115
-0.395,-0.295,5116
-0.385,-0.295,5117
-0.39,-0.29,5118
-0.385,-0.295,5119
-0.38,-0.3,5120
-0.39,-0.31,5121
-0.4,-0.3,5122
-0.4,-0.3,5123
-0.39,-0.295,5124
-0.365,-0.305,5125
-0.375,-0.315,5126
-0.385,-0.33,5127
-0.4,-0.325,5128
-0.4,-0.325,5129
-0.39,-0.315,5130
-0.38,-0.325,5131
-0.375,-0.33,5132
-0.385,-0.345,5133
-0.395,-0.35,5134
-0.38,-0.345,5135
-0.37,-0.335,5136
-0.365,-0.355,5137
-0.365,-0.38,5138
-0.375,-0.375,5139
-0.385,-0.385,5140
-0.375,-0.375,5141
-0.375,-0.37,5142
-0.365,-0.38,5143
-0.37,-0.395,5144
-0.375,-0.41,5145
-0.4,-0.41,5146
-0.395,-0.405,5147
-0.405,-0.4,5148
-0.37,-0.405,5149
-0.385,-0.42,5150
-0.4,-0.43,5151
-0.41,-0.43,5152
-0.4,-0.42,5153
-0.395,-0.41,5154
-0.375,-0.405,5155
-0.38,-0.405,5156
-0.385,-0.41,5157
-0.405,-0.405,5158
-0.385,-0.385,5159
-0.375,-0.37,5160
-0.37,-0.355,5161
-0.365,-0.345,5162
-0.365,-0.335,5163
-0.35,-0.32,5164
-0.355,-0.3,5165
-0.32,-0.28,5166
-0.31,-0.27,5167
-0.31,-0.265,5168
-0.305,-0.265,5169
-0.31,-0.25,5170
-0.29,-0.225,5171
-0.28,-0.215,5172
-0.28,-0.215,5173
-0.27,-0.23,5174
-0.28,-0.225,5175
-0.285,-0.225,5176
-0.28,-0.225,5177
-0.285,-0.21,5178
-0.265,-0.21,5179
-0.27,-0.215,5180
-0.275,-0.21,5181
-0.29,-0.21,5182
-0.29,-0.21,5183
-0.275,-0.195,5184
-0.275,-0.2,5185
-0.27,-0.215,5186
-0.275,-0.22,5187
-0.29,-0.215,5188
-0.285,-0.205,5189
-0.285,-0.195,5190
-0.26,-0.205,5191
-0.26,-0.22,5192
-0.275,-0.225,5193
-0.285,-0.22,5194
-0.275,-0.21,5195
-0.265,-0.205,5196
-0.27,-0.21,5197
-0.28,-0.215,5198
-0.29,-0.225,5199
-0.295,-0.23,5200
-0.3,-0.22,5201
-0.28,-0.21,5202
-0.28,-0.22,5203
-0.275,-0.22,5204
-0.29,-0.235,5205
-0.3,-0.235,5206
-0.305,-0.225,5207
-0.285,-0.215,5208
-0.285,-0.22,5209
-0.285,-0.225,5210
-0.295,-0.235,5211
-0.3,-0.235,5212
-0.3,-0.23,5213
-0.295,-0.215,5214
-0.28,-0.215,5215
-0.295,-0.225,5216
-0.29,-0.24,5217
-0.305,-0.25,5218
-0.305,-0.235,5219
-0.3,-0.235,5220
-0.285,-0.235,5221
-0.285,-0.235,5222
-0.31,-0.26,5223
-0.315,-0.25,5224
-0.305,-0.235,5225
-0.305,-0.235,5226
-0.295,-0.23,5227
-0.3,-0.24,5228
-0.32,-0.25,5229
-0.335,-0.245,5230
-0.32,-0.24,5231
-0.32,-0.24,5232
-0.31,-0.24,5233
-0.315,-0.245,5234
-0.31,-0.25,5235
-0.33,-0.255,5236
-0.32,-0.245,5237
-0.31,-0.24,5238
-0.305,-0.245,5239
-0.305,-0.255,5240
-0.315,-0.255,5241
-0.315,-0.26,5242
-0.315,-0.245,5243
-0.305,-0.23,5244
-0.305,-0.25,5245
-0.3,-0.245,5246
-0.31,-0.26,5247
-0.31,-0.26,5248
-0.31,-0.24,5249
-0.31,-0.23,5250
-0.295,-0.225,5251
-0.3,-0.23,5252
-0.325,-0.25,5253
-0.325,-0.25,5254
-0.33,-0.24,5255
-0.32,-0.23,5256
-0.31,-0.235,5257
-0.305,-0.245,5258
-0.315,-0.24,5259
-0.33,-0.23,5260
-0.32,-0.225,5261
-0.31,-0.235,5262
-0.305,-0.23,5263
-0.3,-0.23,5264
-0.295,-0.24,5265
-0.32,-0.245,5266
-0.31,-0.23,5267
-0.3,-0.225,5268
-0.275,-0.225,5269
-0.27,-0.23,5270
-0.26,-0.245,5271
-0.25,-0.24,5272
-0.235,-0.23,5273
-0.23,-0.215,5274
-0.225,-0.21,5275
-0.23,-0.225,5276
-0.23,-0.225,5277
-0.24,-0.23,5278
-0.23,-0.215,5279
-0.225,-0.2,5280
-0.205,-0.205,5281
-0.205,-0.21,5282
-0.2,-0.21,5283
-0.21,-0.2,5284
-0.195,-0.19,5285
-0.2,-0.18,5286
-0.19,-0.185,5287
-0.2,-0.195,5288
-0.21,-0.2,5289
-0.225,-0.195,5290
-0.225,-0.185,5291
-0.22,-0.155,5292
-0.22,-0.165,5293
-0.22,-0.17,5294
-0.23,-0.18,5295
-0.25,-0.175,5296
-0.245,-0.18,5297
-0.23,-0.16,5298
-0.205,-0.185,5299
-0.185,-0.19,5300
-0.195,-0.205,5301
-0.225,-0.205,5302
-0.25,-0.195,5303
-0.255,-0.19,5304
-0.265,-0.2,5305
-0.275,-0.205,5306
-0.305,-0.225,5307
-0.32,-0.23,5308
-0.325,-0.225,5309
-0.325,-0.2,5310
-0.33,-0.215,5311
-0.33,-0.225,5312
-0.325,-0.23,5313
-0.335,-0.245,5314
-0.34,-0.235,5315
-0.335,-0.215,5316
-0.32,-0.225,5317
-0.335,-0.235,5318
-0.345,-0.23,5319
-0.355,-0.235,5320
-0.35,-0.22,5321
-0.355,-0.22,5322
-0.35,-0.225,5323
-0.345,-0.225,5324
-0.34,-0.225,5325
-0.355,-0.23,5326
-0.35,-0.225,5327
-0.34,-0.225,5328
-0.34,-0.245,5329
-0.34,-0.28,5330
-0.355,-0.305,5331
-0.4,-0.335,5332
-0.435,-0.35,5333
-0.455,-0.36,5334
-0.47,-0.36,5335
-0.5,-0.315,5336
-0.54,-0.22,5337
-0.545,-0.095,5338
-0.465,0.025,5339
-0.355,0.14,5340
-0.21,0.245,5341
-0.035,0.365,5342
0.185,0.465,5343
0.435,0.565,5344
0.675,0.58,5345
0.82,0.415,5346
0.825,0.075,5347
0.64,-0.21,5348
0.32,-0.33,5349
-0.07,-0.3,5350
-0.34,-0.27,5351
-0.445,-0.26,5352
-0.445,-0.26,5353
-0.41,-0.255,5354
-0.38,-0.265,5355
-0.375,-0.265,5356
-0.375,-0.255,5357
-0.37,-0.25,5358
-0.365,-0.26,5359
-0.36,-0.265,5360
-0.37,-0.26,5361
-0.375,-0.275,5362
-0.37,-0.255,5363
-0.36,-0.255,5364
-0.35,-0.26,5365
-0.355,-0.275,5366
-0.365,-0.275,5367
-0.38,-0.275,5368
-0.38,-0.26,5369
-0.37,-0.26,5370
-0.365,-0.255,5371
-0.365,-0.275,5372
-0.38,-0.285,5373
-0.385,-0.28,5374
-0.39,-0.265,5375
-0.38,-0.25,5376
-0.375,-0.25,5377
-0.375,-0.26,5378
-0.38,-0.275,5379
-0.39,-0.285,5380
-0.38,-0.275,5381
-0.375,-0.25,5382
-0.37,-0.255,5383
-0.365,-0.255,5384
-0.375,-0.27,5385
-0.385,-0.27,5386
-0.365,-0.255,5387
-0.36,-0.25,5388
-0.35,-0.25,5389
-0.355,-0.255,5390
-0.355,-0.255,5391
-0.37,-0.25,5392
-0.365,-0.255,5393
-0.35,-0.235,5394
-0.36,-0.24,5395
-0.365,-0.255,5396
-0.365,-0.255,5397
-0.375,-0.265,5398
-0.375,-0.26,5399
-0.355,-0.25,5400
-0.355,-0.25,5401
-0.37,-0.26,5402
-0.375,-0.275,5403
-0.38,-0.28,5404
-0.385,-0.275,5405
-0.37,-0.255,5406
-0.37,-0.265,5407
-0.36,-0.285,5408
-0.37,-0.28,5409
-0.375,-0.295,5410
-0.365,-0.295,5411
-0.355,-0.275,5412
-0.345,-0.285,5413
-0.36,-0.295,5414
-0.355,-0.305,5415
-0.365,-0.305,5416
-0.36,-0.305,5417
-0.345,-0.305,5418
-0.335,-0.31,5419
-0.335,-0.315,5420
-0.355,-0.33,5421
-0.355,-0.33,5422
-0.35,-0.315,5423
-0.34,-0.315,5424
-0.35,-0.32,5425
-0.35,-0.34,5426
-0.355,-0.365,5427
-0.365,-0.36,5428
-0.36,-0.36,5429
-0.365,-0.345,5430
-0.365,-0.365,5431
-0.365,-0.365,5432
-0.37,-0.385,5433
-0.375,-0.385,5434
-0.38,-0.39,5435
-0.365,-0.375,5436
-0.35,-0.365,5437
-0.36,-0.385,5438
-0.365,-0.4,5439
-0.38,-0.395,5440
-0.375,-0.39,5441
-0.37,-0.38,5442
-0.36,-0.385,5443
-0.365,-0.4,5444
-0.375,-0.405,5445
-0.38,-0.4,5446
-0.375,-0.395,5447
-0.36,-0.37,5448
-0.355,-0.37,5449
-0.355,-0.365,5450
-0.355,-0.37,5451
-0.35,-0.35,5452
-0.35,-0.335,5453
-0.34,-0.32,5454
-0.33,-0.32,5455
-0.325,-0.31,5456
-0.335,-0.305,5457
-0.335,-0.295,5458
-0.33,-0.285,5459
-0.31,-0.27,5460
-0.3,-0.255,5461
-0.295,-0.265,5462
-0.305,-0.27,5463
-0.31,-0.25,5464
-0.285,-0.24,5465
-0.285,-0.225,5466
-0.265,-0.23,5467
-0.27,-0.225,5468
-0.285,-0.235,5469
-0.29,-0.245,5470
-0.275,-0.25,5471
-0.27,-0.235,5472
-0.255,-0.235,5473
-0.265,-0.24,5474
-0.265,-0.255,5475
-0.275,-0.25,5476
-0.27,-0.235,5477
-0.26,-0.235,5478
-0.25,-0.24,5479
-0.26,-0.245,5480
-0.27,-0.255,5481
-0.28,-0.255,5482
-0.29,-0.26,5483
-0.29,-0.245,5484
-0.28,-0.245,5485
-0.28,-0.255,5486
-0.29,-0.265,5487
-0.305,-0.27,5488
-0.3,-0.26,5489
-0.3,-0.24,5490
-0.295,-0.24,5491
-0.3,-0.255,5492
-0.29,-0.28,5493
-0.3,-0.265,5494
-0.31,-0.265,5495
-0.31,-0.26,5496
-0.295,-0.26,5497
-0.295,-0.255,5498
-0.3,-0.26,5499
-0.32,-0.26,5500
-0.315,-0.255,5501
-0.315,-0.25,5502
-0.3,-0.26,5503
-0.31,-0.265,5504
-0.305,-0.28,5505
-0.315,-0.29,5506
-0.305,-0.275,5507
-0.305,-0.255,5508
-0.305,-0.26,5509
-0.3,-0.275,5510
-0.305,-0.29,5511
-0.31,-0.29,5512
-0.315,-0.285,5513
-0.315,-0.28,5514
-0.315,-0.275,5515
-0.32,-0.28,5516
-0.335,-0.285,5517
-0.345,-0.29,5518
-0.335,-0.285,5519
-0.31,-0.275,5520
-0.325,-0.285,5521
-0.32,-0.285,5522
-0.33,-0.285,5523
-0.325,-0.295,5524
-0.325,-0.285,5525
-0.32,-0.28,5526
-0.32,-0.275,5527
-0.315,-0.29,5528
-0.325,-0.3,5529
-0.345,-0.295,5530
-0.335,-0.285,5531
-0.325,-0.28,5532
-0.325,-0.28,5533
-0.33,-0.295,5534
-0.335,-0.295,5535
-0.34,-0.3,5536
-0.335,-0.29,5537
-0.325,-0.27,5538
-0.32,-0.275,5539
-0.315,-0.28,5540
-0.335,-0.29,5541
-0.345,-0.295,5542
-0.335,-0.285,5543
-0.325,-0.285,5544
-0.325,-0.285,5545
-0.32,-0.29,5546
-0.325,-0.3,5547
-0.335,-0.295,5548
-0.32,-0.295,5549
-0.32,-0.275,5550
-0.31,-0.28,5551
-0.31,-0.28,5552
-0.32,-0.3,5553
-0.33,-0.3,5554
-0.34,-0.285,5555
-0.325,-0.275,5556
-0.305,-0.27,5557
-0.305,-0.295,5558
-0.29,-0.295,5559
-0.29,-0.305,5560
-0.27,-0.29,5561
-0.265,-0.27,5562
-0.265,-0.28,5563
-0.26,-0.29,5564
-0.26,-0.29,5565
-0.27,-0.275,5566
-0.275,-0.255,5567
-0.26,-0.25,5568
-0.245,-0.26,5569
-0.235,-0.27,5570
-0.23,-0.28,5571
-0.245,-0.27,5572
-0.24,-0.265,5573
-0.23,-0.245,5574
-0.24,-0.245,5575
-0.225,-0.255,5576
-0.24,-0.25,5577
-0.245,-0.24,5578
-0.24,-0.235,5579
-0.22,-0.23,5580
-0.22,-0.23,5581
-0.23,-0.25,5582
-0.245,-0.265,5583
-0.255,-0.275,5584
-0.24,-0.275,5585
-0.215,-0.26,5586
-0.225,-0.255,5587
-0.255,-0.265,5588
-0.285,-0.29,5589
-0.31,-0.295,5590
-0.31,-0.295,5591
-0.33,-0.28,5592
-0.335,-0.27,5593
-0.35,-0.29,5594
-0.35,-0.3,5595
-0.36,-0.295,5596
-0.355,-0.3,5597
-0.34,-0.3,5598
-0.34,-0.3,5599
-0.335,-0.305,5600
-0.35,-0.295,5601
-0.36,-0.295,5602
-0.36,-0.295,5603
-0.345,-0.3,5604
-0.345,-0.3,5605
-0.35,-0.3,5606
-0.35,-0.3,5607
-0.36,-0.315,5608
-0.35,-0.305,5609
-0.35,-0.28,5610
-0.345,-0.29,5611
-0.355,-0.295,5612
-0.355,-0.325,5613
-0.37,-0.34,5614
-0.375,-0.36,5615
-0.39,-0.365,5616
-0.425,-0.38,5617
-0.455,-0.415,5618
-0.475,-0.45,5619
-0.5,-0.42,5620
-0.54,-0.345,5621
-0.57,-0.245,5622
-0.51,-0.16,5623
-0.415,-0.09,5624
-0.335,-0.06,5625
-0.26,-0.005,5626
-0.15,0.05,5627
-0.005,0.165,5628
0.205,0.265,5629
0.47,0.38,5630
0.68,0.46,5631
0.825,0.495,5632
0.925,0.485,5633
0.97,0.335,5634
0.885,0.045,5635
0.69,-0.245,5636
0.415,-0.43,5637
0.105,-0.48,5638
-0.15,-0.43,5639
-0.345,-0.4,5640
-0.435,-0.38,5641
-0.465,-0.365,5642
-0.455,-0.355,5643
-0.425,-0.365,5644
-0.415,-0.345,5645
-0.395,-0.345,5646
-0.375,-0.34,5647
-0.37,-0.345,5648
-0.395,-0.365,5649
-0.4,-0.36,5650
-0.4,-0.36,5651
-0.41,-0.34,5652
-0.4,-0.35,5653
-0.405,-0.345,5654
-0.4,-0.365,5655
-0.405,-0.36,5656
-0.395,-0.36,5657
-0.39,-0.345,5658
-0.38,-0.345,5659
-0.385,-0.36,5660
-0.405,-0.36,5661
-0.42,-0.37,5662
-0.405,-0.355,5663
-0.4,-0.345,5664
-0.39,-0.345,5665
-0.38,-0.355,5666
-0.395,-0.36,5667
-0.395,-0.36,5668
-0.4,-0.355,5669
-0.39,-0.35,5670
-0.41,-0.34,5671
-0.405,-0.345,5672
-0.41,-0.36,5673
-0.41,-0.345,5674
-0.395,-0.355,5675
-0.385,-0.335,5676
-0.395,-0.35,5677
-0.405,-0.365,5678
-0.42,-0.36,5679
-0.435,-0.37,5680
-0.415,-0.36,5681
-0.405,-0.345,5682
-0.41,-0.34,5683
-0.4,-0.355,5684
-0.41,-0.375,5685
-0.415,-0.38,5686
-0.41,-0.365,5687
-0.4,-0.36,5688
-0.405,-0.355,5689
-0.39,-0.355,5690
-0.39,-0.35,5691
-0.4,-0.365,5692
-0.39,-0.355,5693
-0.39,-0.36,5694
-0.39,-0.365,5695
-0.395,-0.385,5696
-0.42,-0.39,5697
-0.42,-0.38,5698
-0.415,-0.37,5699
-0.41,-0.365,5700
-0.395,-0.385,5701
-0.395,-0.385,5702
-0.4,-0.42,5703
-0.415,-0.405,5704
-0.415,-0.39,5705
-0.4,-0.39,5706
-0.4,-0.385,5707
-0.385,-0.395,5708
-0.39,-0.405,5709
-0.41,-0.4,5710
-0.395,-0.395,5711
-0.39,-0.395,5712
-0.38,-0.405,5713
-0.375,-0.425,5714
-0.39,-0.44,5715
-0.405,-0.455,5716
-0.42,-0.455,5717
-0.415,-0.445,5718
-0.415,-0.465,5719
-0.415,-0.465,5720
-0.435,-0.48,5721
-0.465,-0.485,5722
-0.455,-0.485,5723
-0.465,-0.485,5724
-0.46,-0.49,5725
-0.445,-0.5,5726
-0.455,-0.51,5727
-0.465,-0.525,5728
-0.475,-0.51,5729
-0.455,-0.495,5730
-0.46,-0.5,5731
-0.45,-0.515,5732
-0.455,-0.51,5733
-0.47,-0.49,5734
-0.455,-0.475,5735
-0.44,-0.45,5736
-0.42,-0.45,5737
-0.415,-0.45,5738
-0.42,-0.44,5739
-0.41,-0.43,5740
-0.41,-0.405,5741
-0.37,-0.39,5742
-0.36,-0.39,5743
-0.35,-0.38,5744
-0.35,-0.38,5745
-0.345,-0.37,5746
-0.335,-0.355,5747
-0.32,-0.34,5748
-0.3,-0.34,5749
-0.32,-0.33,5750
-0.315,-0.34,5751
-0.34,-0.33,5752
-0.325,-0.325,5753
-0.3,-0.32,5754
-0.3,-0.32,5755
-0.3,-0.32,5756
-0.31,-0.325,5757
-0.33,-0.335,5758
-0.31,-0.315,5759
-0.305,-0.315,5760
-0.3,-0.305,5761
-0.305,-0.325,5762
-0.315,-0.34,5763
-0.33,-0.345,5764
-0.31,-0.325,5765
-0.305,-0.32,5766
-0.31,-0.32,5767
-0.305,-0.325,5768
-0.31,-0.34,5769
-0.31,-0.345,5770
-0.31,-0.33,5771
-0.3,-0.31,5772
-0.305,-0.315,5773
-0.31,-0.32,5774
-0.31,-0.345,5775
-0.32,-0.345,5776
-0.315,-0.325,5777
-0.33,-0.34,5778
-0.315,-0.335,5779
-0.32,-0.345,5780
-0.34,-0.34,5781
-0.34,-0.35,5782
-0.335,-0.345,5783
-0.33,-0.335,5784
-0.32,-0.345,5785
-0.32,-0.345,5786
-0.325,-0.355,5787
-0.35,-0.355,5788
-0.34,-0.345,5789
-0.335,-0.335,5790
-0.335,-0.345,5791
-0.345,-0.345,5792
-0.35,-0.355,5793
-0.36,-0.35,5794
-0.36,-0.355,5795
-0.345,-0.34,5796
-0.335,-0.355,5797
-0.335,-0.36,5798
-0.335,-0.355,5799
-0.345,-0.34,5800
-0.335,-0.345,5801
-0.335,-0.345,5802
-0.33,-0.345,5803
-0.335,-0.355,5804
-0.335,-0.34,5805
-0.35,-0.37,5806
-0.345,-0.37,5807
-0.355,-0.35,5808
-0.345,-0.35,5809
-0.345,-0.35,5810
-0.355,-0.36,5811
-0.365,-0.37,5812
-0.36,-0.37,5813
-0.355,-0.36,5814
-0.345,-0.36,5815
-0.345,-0.355,5816
-0.345,-0.36,5817
-0.36,-0.36,5818
-0.345,-0.35,5819
-0.34,-0.345,5820
-0.335,-0.35,5821
-0.34,-0.355,5822
-0.345,-0.365,5823
-0.37,-0.36,5824
-0.37,-0.35,5825
-0.36,-0.33,5826
-0.34,-0.335,5827
-0.35,-0.34,5828
-0.365,-0.35,5829
-0.355,-0.36,5830
-0.35,-0.34,5831
-0.34,-0.34,5832
-0.34,-0.335,5833
-0.355,-0.34,5834
-0.355,-0.35,5835
-0.35,-0.35,5836
-0.35,-0.34,5837
-0.335,-0.33,5838
-0.34,-0.33,5839
-0.34,-0.34,5840
-0.33,-0.345,5841
-0.35,-0.345,5842
-0.315,-0.345,5843
-0.3,-0.335,5844
-0.29,-0.32,5845
-0.275,-0.335,5846
-0.28,-0.34,5847
-0.285,-0.345,5848
-0.275,-0.325,5849
-0.27,-0.3,5850
-0.255,-0.315,5851
-0.24,-0.315,5852
-0.25,-0.305,5853
-0.255,-0.3,5854
-0.24,-0.28,5855
-0.225,-0.27,5856
-0.225,-0.29,5857
-0.24,-0.29,5858
-0.255,-0.295,5859
-0.26,-0.29,5860
-0.275,-0.275,5861
-0.26,-0.255,5862
-0.245,-0.265,5863
-0.255,-0.275,5864
-0.265,-0.28,5865
-0.28,-0.285,5866
-0.27,-0.28,5867
-0.25,-0.27,5868
-0.235,-0.285,5869
-0.23,-0.305,5870
-0.245,-0.305,5871
-0.27,-0.305,5872
-0.28,-0.295,5873
-0.28,-0.295,5874
-0.29,-0.295,5875
-0.315,-0.315,5876
-0.335,-0.325,5877
-0.355,-0.325,5878
-0.355,-0.31,5879
-0.355,-0.305,5880
-0.36,-0.3,5881
-0.36,-0.31,5882
-0.375,-0.325,5883
-0.38,-0.325,5884
-0.36,-0.325,5885
-0.355,-0.305,5886
-0.35,-0.305,5887
-0.345,-0.325,5888
-0.37,-0.32,5889
-0.37,-0.325,5890
-0.355,-0.31,5891
-0.355,-0.31,5892
-0.35,-0.315,5893
-0.345,-0.32,5894
-0.355,-0.325,5895
-0.355,-0.32,5896
-0.36,-0.315,5897
-0.355,-0.305,5898
-0.355,-0.3,5899
-0.355,-0.325,5900
-0.36,-0.335,5901
-0.375,-0.35,5902
-0.37,-0.355,5903
-0.39,-0.38,5904
-0.425,-0.415,5905
-0.465,-0.43,5906
-0.49,-0.455,5907
-0.525,-0.41,5908
-0.56,-0.305,5909
-0.56,-0.16,5910
-0.495,-0.045,5911
-0.36,0.035,5912
-0.22,0.12,5913
-0.045,0.245,5914
0.19,0.385,5915
0.475,0.495,5916
0.725,0.475,5917
0.895,0.295,5918
0.895,-0.04,5919
0.71,-0.35,5920
0.35,-0.44,5921
-0.055,-0.415,5922
-0.35,-0.38,5923
-0.48,-0.36,5924
-0.49,-0.365,5925
-0.465,-0.355,5926
-0.415,-0.34,5927
-0.405,-0.34,5928
-0.395,-0.335,5929
-0.405,-0.35,5930
-0.42,-0.37,5931
-0.395,-0.36,5932
-0.415,-0.355,5933
-0.4,-0.355,5934
-0.39,-0.35,5935
-0.385,-0.35,5936
-0.395,-0.355,5937
-0.405,-0.35,5938
-0.395,-0.35,5939
-0.4,-0.34,5940
-0.39,-0.345,5941
-0.39,-0.345,5942
-0.4,-0.35,5943
-0.415,-0.345,5944
-0.405,-0.335,5945
-0.39,-0.335,5946
-0.38,-0.33,5947
-0.38,-0.345,5948
-0.405,-0.345,5949
-0.39,-0.34,5950
-0.4,-0.335,5951
-0.39,-0.32,5952
-0.38,-0.335,5953
-0.38,-0.33,5954
-0.405,-0.34,5955
-0.4,-0.34,5956
-0.41,-0.335,5957
-0.4,-0.325,5958
-0.395,-0.325,5959
-0.4,-0.34,5960
-0.4,-0.345,5961
-0.405,-0.345,5962
-0.39,-0.32,5963
-0.38,-0.32,5964
-0.385,-0.33,5965
-0.385,-0.345,5966
-0.39,-0.335,5967
-0.405,-0.34,5968
-0.4,-0.33,5969
-0.4,-0.325,5970
-0.39,-0.33,5971
-0.39,-0.34,5972
-0.41,-0.345,5973
-0.41,-0.35,5974
-0.405,-0.335,5975
-0.4,-0.325,5976
-0.41,-0.34,5977
-0.405,-0.335,5978
-0.41,-0.355,5979
-0.415,-0.36,5980
-0.41,-0.355,5981
-0.405,-0.35,5982
-0.395,-0.345,5983
-0.405,-0.355,5984
-0.4,-0.375,5985
-0.4,-0.365,5986
-0.395,-0.375,5987
-0.405,-0.375,5988
-0.38,-0.365,5989
-0.385,-0.375,5990
-0.39,-0.385,5991
-0.41,-0.39,5992
-0.395,-0.38,5993
-0.39,-0.37,5994
-0.38,-0.38,5995
-0.385,-0.39,5996
-0.405,-0.405,5997
-0.405,-0.425,5998
-0.405,-0.42,5999
-0.4,-0.425,6000
-0.41,-0.425,6001
-0.41,-0.435,6002
-0.415,-0.445,6003
-0.435,-0.45,6004
-0.43,-0.46,6005
-0.415,-0.455,6006
-0.42,-0.47,6007
-0.42,-0.475,6008
-0.44,-0.49,6009
-0.44,-0.49,6010
-0.435,-0.475,6011
-0.435,-0.465,6012
-0.435,-0.47,6013
-0.43,-0.48,6014
-0.445,-0.485,6015
-0.445,-0.47,6016
-0.42,-0.465,6017
-0.425,-0.43,6018
-0.41,-0.43,6019
-0.405,-0.42,6020
-0.4,-0.42,6021
-0.41,-0.39,6022
-0.38,-0.375,6023
-0.37,-0.365,6024
-0.35,-0.35,6025
-0.34,-0.34,6026
-0.355,-0.325,6027
-0.345,-0.325,6028
-0.34,-0.31,6029
-0.315,-0.29,6030
-0.32,-0.285,6031
-0.3,-0.29,6032
-0.3,-0.29,6033
-0.315,-0.285,6034
-0.305,-0.27,6035
-0.3,-0.245,6036
-0.28,-0.265,6037
-0.29,-0.265,6038
-0.29,-0.28,6039
-0.3,-0.29,6040
-0.295,-0.27,6041
-0.295,-0.255,6042
-0.28,-0.27,6043
-0.285,-0.265,6044
-0.29,-0.275,6045
-0.295,-0.28,6046
-0.285,-0.275,6047
-0.28,-0.265,6048
-0.275,-0.27,6049
-0.265,-0.28,6050
-0.28,-0.28,6051
-0.295,-0.285,6052
-0.28,-0.275,6053
-0.28,-0.265,6054
-0.275,-0.27,6055
-0.29,-0.27,6056
-0.295,-0.285,6057
-0.31,-0.29,6058
-0.29,-0.27,6059
-0.29,-0.26,6060
-0.275,-0.265,6061
-0.27,-0.28,6062
-0.295,-0.285,6063
-0.315,-0.28,6064
-0.31,-0.28,6065
-0.3,-0.27,6066
-0.295,-0.28,6067
-0.29,-0.28,6068
-0.3,-0.285,6069
-0.315,-0.29,6070
-0.305,-0.28,6071
-0.3,-0.275,6072
-0.29,-0.29,6073
-0.31,-0.295,6074
-0.315,-0.305,6075
-0.33,-0.295,6076
-0.31,-0.285,6077
-0.305,-0.28,6078
-0.295,-0.29,6079
-0.295,-0.3,6080
-0.305,-0.31,6081
-0.325,-0.31,6082
-0.315,-0.305,6083
-0.315,-0.285,6084
-0.31,-0.29,6085
-0.3,-0.295,6086
-0.315,-0.305,6087
-0.335,-0.305,6088
-0.325,-0.3,6089
-0.325,-0.295,6090
-0.315,-0.3,6091
-0.31,-0.29,6092
-0.32,-0.305,6093
-0.335,-0.3,6094
-0.325,-0.285,6095
-0.31,-0.27,6096
-0.305,-0.275,6097
-0.305,-0.29,6098
-0.32,-0.295,6099
-0.325,-0.3,6100
-0.315,-0.295,6101
-0.31,-0.285,6102
-0.3,-0.285,6103
-0.315,-0.285,6104
-0.325,-0.29,6105
-0.32,-0.285,6106
-0.32,-0.28,6107
-0.32,-0.27,6108
-0.31,-0.29,6109
-0.31,-0.29,6110
-0.31,-0.295,6111
-0.315,-0.28,6112
-0.305,-0.285,6113
-0.285,-0.27,6114
-0.295,-0.275,6115
-0.305,-0.285,6116
-0.31,-0.29,6117
-0.315,-0.285,6118
-0.3,-0.28,6119
-0.315,-0.255,6120
-0.305,-0.265,6121
-0.305,-0.265,6122
-0.325,-0.28,6123
-0.325,-0.285,6124
-0.315,-0.28,6125
-0.3,-0.27,6126
-0.295,-0.25,6127
-0.31,-0.27,6128
-0.315,-0.265,6129
-0.32,-0.28,6130
-0.315,-0.275,6131
-0.31,-0.265,6132
-0.295,-0.27,6133
-0.285,-0.28,6134
-0.27,-0.28,6135
-0.25,-0.28,6136
-0.245,-0.255,6137
-0.23,-0.26,6138
-0.22,-0.25,6139
-0.225,-0.255,6140
-0.235,-0.26,6141
-0.23,-0.255,6142
-0.22,-0.235,6143
-0.205,-0.215,6144
-0.19,-0.225,6145
-0.19,-0.235,6146
-0.19,-0.235,6147
-0.205,-0.24,6148
-0.205,-0.23,6149
-0.205,-0.21,6150
-0.21,-0.205,6151
-0.215,-0.205,6152
-0.225,-0.2,6153
-0.23,-0.2,6154
-0.225,-0.2,6155
-0.22,-0.19,6156
-0.22,-0.19,6157
-0.24,-0.205,6158
-0.24,-0.21,6159
-0.23,-0.205,6160
-0.205,-0.205,6161
-0.195,-0.2,6162
-0.195,-0.21,6163
-0.22,-0.225,6164
-0.245,-0.235,6165
-0.275,-0.235,6166
-0.26,-0.23,6167
-0.275,-0.215,6168
-0.285,-0.225,6169
-0.3,-0.235,6170
-0.3,-0.235,6171
-0.31,-0.245,6172
-0.31,-0.24,6173
-0.32,-0.23,6174
-0.32,-0.24,6175
-0.325,-0.245,6176
-0.335,-0.255,6177
-0.345,-0.26,6178
-0.335,-0.255,6179
-0.335,-0.23,6180
-0.33,-0.245,6181
-0.335,-0.255,6182
-0.345,-0.255,6183
-0.36,-0.255,6184
-0.345,-0.245,6185
-0.335,-0.235,6186
-0.345,-0.245,6187
-0.345,-0.25,6188
-0.355,-0.26,6189
-0.36,-0.26,6190
-0.355,-0.25,6191
-0.34,-0.24,6192
-0.34,-0.25,6193
-0.35,-0.265,6194
-0.35,-0.275,6195
-0.355,-0.275,6196
-0.355,-0.295,6197
-0.355,-0.31,6198
-0.37,-0.34,6199
-0.425,-0.375,6200
-0.465,-0.41,6201
-0.48,-0.42,6202
-0.5,-0.365,6203
-0.53,-0.235,6204
-0.535,-0.115,6205
-0.485,0.015,6206
-0.395,0.115,6207
-0.255,0.235,6208
-0.095,0.37,6209
0.095,0.5,6210
0.35,0.615,6211
0.63,0.705,6212
0.845,0.71,6213
0.955,0.51,6214
0.975,0.16,6215
0.825,-0.125,6216
0.48,-0.285,6217
0.055,-0.295,6218
-0.27,-0.295,6219
-0.455,-0.305,6220
-0.485,-0.29,6221
-0.44,-0.28,6222
-0.405,-0.275,6223
-0.375,-0.27,6224
-0.375,-0.29,6225
-0.39,-0.29,6226
-0.38,-0.29,6227
-0.36,-0.28,6228
-0.355,-0.285,6229
-0.345,-0.295,6230
-0.365,-0.295,6231
-0.375,-0.305,6232
-0.37,-0.3,6233
-0.37,-0.3,6234
-0.355,-0.29,6235
-0.37,-0.295,6236
-0.375,-0.305,6237
-0.38,-0.31,6238
-0.385,-0.3,6239
-0.38,-0.29,6240
-0.38,-0.29,6241
-0.38,-0.295,6242
-0.385,-0.31,6243
-0.395,-0.3,6244
-0.395,-0.295,6245
-0.39,-0.28,6246
-0.385,-0.285,6247
-0.38,-0.295,6248
-0.38,-0.305,6249
-0.395,-0.31,6250
-0.39,-0.29,6251
-0.38,-0.285,6252
-0.37,-0.29,6253
-0.375,-0.29,6254
-0.385,-0.295,6255
-0.38,-0.3,6256
-0.375,-0.29,6257
-0.365,-0.28,6258
-0.36,-0.285,6259
-0.365,-0.29,6260
-0.365,-0.3,6261
-0.385,-0.305,6262
-0.37,-0.295,6263
-0.365,-0.28,6264
-0.355,-0.3,6265
-0.385,-0.295,6266
-0.395,-0.305,6267
-0.395,-0.305,6268
-0.385,-0.29,6269
-0.37,-0.275,6270
-0.38,-0.29,6271
-0.37,-0.3,6272
-0.375,-0.305,6273
-0.39,-0.31,6274
-0.385,-0.295,6275
-0.38,-0.295,6276
-0.37,-0.3,6277
-0.37,-0.305,6278
-0.385,-0.315,6279
-0.385,-0.315,6280
-0.38,-0.32,6281
-0.385,-0.315,6282
-0.37,-0.33,6283
-0.375,-0.32,6284
-0.375,-0.335,6285
-0.38,-0.34,6286
-0.38,-0.33,6287
-0.355,-0.31,6288
-0.36,-0.325,6289
-0.365,-0.33,6290
-0.37,-0.345,6291
-0.38,-0.35,6292
-0.37,-0.355,6293
-0.375,-0.345,6294
-0.36,-0.355,6295
-0.37,-0.36,6296
-0.38,-0.375,6297
-0.385,-0.39,6298
-0.375,-0.37,6299
-0.375,-0.38,6300
-0.37,-0.39,6301
-0.37,-0.4,6302
-0.385,-0.41,6303
-0.4,-0.41,6304
-0.395,-0.405,6305
-0.385,-0.405,6306
-0.395,-0.43,6307
-0.38,-0.44,6308
-0.4,-0.445,6309
-0.4,-0.465,6310
-0.4,-0.455,6311
-0.39,-0.445,6312
-0.39,-0.455,6313
-0.385,-0.455,6314
-0.4,-0.465,6315
-0.4,-0.47,6316
-0.385,-0.46,6317
-0.38,-0.45,6318
-0.38,-0.44,6319
-0.385,-0.445,6320
-0.385,-0.44,6321
-0.405,-0.43,6322
-0.395,-0.405,6323
-0.38,-0.395,6324
-0.37,-0.385,6325
-0.37,-0.37,6326
-0.38,-0.375,6327
-0.365,-0.355,6328
-0.355,-0.335,6329
-0.335,-0.305,6330
-0.325,-0.3,6331
-0.32,-0.305,6332
-0.32,-0.305,6333
-0.33,-0.29,6334
-0.315,-0.28,6335
-0.3,-0.27,6336
-0.295,-0.265,6337
-0.285,-0.265,6338
-0.295,-0.26,6339
-0.29,-0.265,6340
-0.285,-0.25,6341
-0.27,-0.245,6342
-0.26,-0.235,6343
-0.265,-0.24,6344
-0.275,-0.27,6345
-0.28,-0.26,6346
-0.275,-0.245,6347
-0.27,-0.245,6348
-0.27,-0.24,6349
-0.26,-0.25,6350
-0.27,-0.255,6351
-0.28,-0.26,6352
-0.285,-0.25,6353
-0.275,-0.24,6354
-0.265,-0.25,6355
-0.27,-0.255,6356
-0.285,-0.255,6357
-0.285,-0.26,6358
-0.285,-0.245,6359
-0.275,-0.245,6360
-0.28,-0.25,6361
-0.275,-0.265,6362
-0.285,-0.265,6363
-0.295,-0.265,6364
-0.295,-0.27,6365
-0.285,-0.245,6366
-0.28,-0.245,6367
-0.27,-0.25,6368
-0.285,-0.26,6369
-0.275,-0.265,6370
-0.29,-0.255,6371
-0.285,-0.26,6372
-0.28,-0.26,6373
-0.29,-0.265,6374
-0.3,-0.265,6375
-0.31,-0.26,6376
-0.31,-0.27,6377
-0.31,-0.255,6378
-0.3,-0.26,6379
-0.3,-0.275,6380
-0.315,-0.27,6381
-0.325,-0.275,6382
-0.315,-0.255,6383
-0.305,-0.255,6384
-0.31,-0.265,6385
-0.31,-0.27,6386
-0.315,-0.285,6387
-0.33,-0.275,6388
-0.325,-0.265,6389
-0.32,-0.265,6390
-0.32,-0.27,6391
-0.315,-0.27,6392
-0.325,-0.27,6393
-0.33,-0.265,6394
-0.335,-0.27,6395
-0.325,-0.265,6396
-0.32,-0.27,6397
-0.32,-0.275,6398
-0.315,-0.28,6399
-0.32,-0.295,6400
-0.31,-0.29,6401
-0.31,-0.275,6402
-0.3,-0.265,6403
-0.305,-0.27,6404
-0.32,-0.285,6405
-0.34,-0.275,6406
-0.335,-0.275,6407
-0.33,-0.265,6408
-0.32,-0.27,6409
-0.33,-0.28,6410
-0.33,-0.28,6411
-0.335,-0.28,6412
-0.34,-0.265,6413
-0.335,-0.255,6414
-0.325,-0.27,6415
-0.34,-0.275,6416
-0.345,-0.275,6417
-0.34,-0.28,6418
-0.34,-0.26,6419
-0.325,-0.255,6420
-0.34,-0.26,6421
-0.335,-0.255,6422
-0.34,-0.275,6423
-0.35,-0.275,6424
-0.34,-0.26,6425
-0.33,-0.255,6426
-0.33,-0.265,6427
-0.325,-0.26,6428
-0.335,-0.27,6429
-0.34,-0.265,6430
-0.335,-0.255,6431
-0.315,-0.25,6432
-0.315,-0.26,6433
-0.31,-0.255,6434
-0.32,-0.275,6435
-0.33,-0.265,6436
-0.32,-0.255,6437
-0.305,-0.24,6438
-0.31,-0.245,6439
-0.305,-0.255,6440
-0.295,-0.245,6441
-0.32,-0.265,6442
-0.305,-0.245,6443
-0.29,-0.24,6444
-0.285,-0.245,6445
-0.285,-0.25,6446
-0.285,-0.265,6447
-0.285,-0.265,6448
-0.265,-0.24,6449
-0.25,-0.225,6450
-0.25,-0.235,6451
-0.25,-0.25,6452
-0.25,-0.245,6453
-0.25,-0.25,6454
-0.25,-0.235,6455
-0.23,-0.22,6456
-0.215,-0.215,6457
-0.225,-0.21,6458
-0.225,-0.21,6459
-0.23,-0.225,6460
-0.23,-0.205,6461
-0.225,-0.2,6462
-0.215,-0.195,6463
-0.215,-0.205,6464
-0.23,-0.2,6465
-0.25,-0.195,6466
-0.24,-0.175,6467
-0.23,-0.175,6468
-0.23,-0.185,6469
-0.24,-0.185,6470
-0.25,-0.19,6471
-0.255,-0.205,6472
-0.22,-0.19,6473
-0.2,-0.195,6474
-0.2,-0.21,6475
-0.225,-0.21,6476
-0.265,-0.22,6477
-0.29,-0.225,6478
-0.29,-0.215,6479
-0.3,-0.215,6480
-0.31,-0.225,6481
-0.325,-0.22,6482
-0.335,-0.235,6483
-0.34,-0.235,6484
-0.35,-0.23,6485
-0.34,-0.22,6486
-0.34,-0.22,6487
-0.345,-0.24,6488
-0.33,-0.24,6489
-0.35,-0.245,6490
-0.345,-0.23,6491
-0.345,-0.23,6492
-0.34,-0.23,6493
-0.35,-0.245,6494
-0.355,-0.255,6495
-0.355,-0.25,6496
-0.355,-0.25,6497
-0.345,-0.24,6498
-0.34,-0.245,6499
-0.34,-0.25,6500
-0.355,-0.245,6501
-0.36,-0.25,6502
-0.36,-0.235,6503
-0.355,-0.22,6504
-0.345,-0.23,6505
-0.345,-0.245,6506
-0.36,-0.27,6507
-0.37,-0.275,6508
-0.375,-0.28,6509
-0.37,-0.285,6510
-0.38,-0.32,6511
-0.42,-0.345,6512
-0.465,-0.39,6513
-0.485,-0.395,6514
-0.515,-0.375,6515
-0.545,-0.29,6516
-0.575,-0.17,6517
-0.545,-0.05,6518
-0.45,0.04,6519
-0.325,0.125,6520
-0.195,0.245,6521
-0.045,0.365,6522
0.165,0.46,6523
0.425,0.56,6524
0.655,0.6,6525
0.81,0.515,6526
0.875,0.275,6527
0.815,-0.03,6528
0.59,-0.26,6529
0.22,-0.34,6530
-0.15,-0.305,6531
-0.38,-0.275,6532
-0.47,-0.285,6533
-0.465,-0.265,6534
-0.425,-0.25,6535
-0.385,-0.26,6536
-0.375,-0.27,6537
-0.395,-0.27,6538
-0.385,-0.27,6539
-0.375,-0.265,6540
-0.355,-0.27,6541
-0.37,-0.27,6542
-0.36,-0.28,6543
-0.365,-0.29,6544
-0.37,-0.275,6545
-0.37,-0.265,6546
-0.36,-0.27,6547
-0.365,-0.275,6548
-0.375,-0.28,6549
-0.38,-0.28,6550
-0.37,-0.27,6551
-0.37,-0.27,6552
-0.37,-0.27,6553
-0.38,-0.26,6554
-0.385,-0.28,6555
-0.395,-0.29,6556
-0.39,-0.27,6557
-0.38,-0.255,6558
-0.375,-0.265,6559
-0.375,-0.27,6560
-0.395,-0.285,6561
-0.4,-0.285,6562
-0.395,-0.25,6563
-0.37,-0.25,6564
-0.37,-0.27,6565
-0.37,-0.265,6566
-0.365,-0.275,6567
-0.39,-0.27,6568
-0.385,-0.265,6569
-0.375,-0.255,6570
-0.36,-0.255,6571
-0.38,-0.265,6572
-0.39,-0.275,6573
-0.39,-0.275,6574
-0.385,-0.265,6575
-0.375,-0.25,6576
-0.375,-0.26,6577
-0.375,-0.27,6578
-0.38,-0.28,6579
-0.39,-0.28,6580
-0.38,-0.275,6581
-0.365,-0.26,6582
-0.38,-0.265,6583
-0.38,-0.28,6584
-0.385,-0.285,6585
-0.39,-0.285,6586
-0.39,-0.265,6587
-0.38,-0.265,6588
-0.38,-0.275,6589
-0.385,-0.295,6590
-0.395,-0.3,6591
-0.4,-0.3,6592
-0.385,-0.285,6593
-0.38,-0.275,6594
-0.36,-0.295,6595
-0.37,-0.31,6596
-0.375,-0.305,6597
-0.37,-0.32,6598
-0.385,-0.305,6599
-0.37,-0.305,6600
-0.365,-0.31,6601
-0.36,-0.315,6602
-0.365,-0.335,6603
-0.375,-0.335,6604
-0.38,-0.335,6605
-0.365,-0.325,6606
-0.37,-0.335,6607
-0.36,-0.35,6608
-0.37,-0.37,6609
-0.395,-0.38,6610
-0.385,-0.37,6611
-0.385,-0.36,6612
-0.39,-0.38,6613
-0.39,-0.385,6614
-0.39,-0.4,6615
-0.41,-0.41,6616
-0.39,-0.405,6617
-0.38,-0.395,6618
-0.39,-0.4,6619
-0.38,-0.42,6620
-0.395,-0.43,6621
-0.405,-0.43,6622
-0.405,-0.43,6623
-0.395,-0.405,6624
-0.39,-0.415,6625
-0.39,-0.42,6626
-0.41,-0.425,6627
-0.415,-0.415,6628
-0.39,-0.41,6629
-0.38,-0.38,6630
-0.39,-0.38,6631
-0.385,-0.375,6632
-0.39,-0.38,6633
-0.39,-0.37,6634
-0.38,-0.345,6635
-0.36,-0.31,6636
-0.355,-0.32,6637
-0.345,-0.3,6638
-0.34,-0.305,6639
-0.345,-0.3,6640
-0.33,-0.29,6641
-0.32,-0.27,6642
-0.315,-0.275,6643
-0.3,-0.275,6644
-0.305,-0.275,6645
-0.32,-0.27,6646
-0.3,-0.245,6647
-0.275,-0.245,6648
-0.275,-0.24,6649
-0.275,-0.245,6650
-0.275,-0.255,6651
-0.28,-0.27,6652
-0.285,-0.265,6653
-0.275,-0.25,6654
-0.275,-0.25,6655
-0.28,-0.245,6656
-0.295,-0.255,6657
-0.305,-0.255,6658
-0.305,-0.255,6659
-0.3,-0.23,6660
-0.29,-0.245,6661
-0.285,-0.27,6662
-0.295,-0.275,6663
-0.31,-0.27,6664
-0.3,-0.255,6665
-0.3,-0.245,6666
-0.295,-0.26,6667
-0.3,-0.26,6668
-0.305,-0.27,6669
-0.31,-0.275,6670
-0.315,-0.265,6671
-0.305,-0.245,6672
-0.31,-0.255,6673
-0.31,-0.27,6674
-0.315,-0.265,6675
-0.32,-0.28,6676
-0.305,-0.27,6677
-0.29,-0.26,6678
-0.285,-0.265,6679
-0.295,-0.275,6680
-0.3,-0.275,6681
-0.315,-0.275,6682
-0.31,-0.285,6683
-0.315,-0.26,6684
-0.32,-0.275,6685
-0.32,-0.285,6686
-0.33,-0.29,6687
-0.34,-0.29,6688
-0.32,-0.275,6689
-0.31,-0.27,6690
-0.32,-0.285,6691
-0.32,-0.29,6692
-0.33,-0.305,6693
-0.345,-0.305,6694
-0.34,-0.295,6695
-0.33,-0.285,6696
-0.33,-0.295,6697
-0.32,-0.29,6698
-0.33,-0.305,6699
-0.325,-0.3,6700
-0.325,-0.3,6701
-0.32,-0.295,6702
-0.315,-0.295,6703
-0.32,-0.29,6704
-0.33,-0.295,6705
-0.345,-0.295,6706
-0.32,-0.29,6707
-0.315,-0.275,6708
-0.315,-0.285,6709
-0.32,-0.305,6710
-0.325,-0.305,6711
-0.335,-0.305,6712
-0.34,-0.295,6713
-0.33,-0.285,6714
-0.325,-0.275,6715
-0.315,-0.275,6716
-0.335,-0.285,6717
-0.345,-0.295,6718
-0.34,-0.29,6719
-0.325,-0.275,6720
-0.32,-0.285,6721
-0.33,-0.305,6722
-0.345,-0.3,6723
-0.34,-0.31,6724
-0.33,-0.295,6725
-0.34,-0.27,6726
-0.325,-0.29,6727
-0.315,-0.28,6728
-0.31,-0.295,6729
-0.325,-0.3,6730
-0.315,-0.295,6731
-0.33,-0.285,6732
-0.315,-0.285,6733
-0.32,-0.29,6734
-0.325,-0.305,6735
-0.33,-0.295,6736
-0.33,-0.285,6737
-0.315,-0.28,6738
-0.31,-0.285,6739
-0.305,-0.31,6740
-0.31,-0.315,6741
-0.31,-0.31,6742
-0.3,-0.3,6743
-0.285,-0.295,6744
-0.275,-0.295,6745
-0.27,-0.295,6746
-0.27,-0.3,6747
-0.28,-0.31,6748
-0.265,-0.29,6749
-0.255,-0.28,6750
-0.25,-0.27,6751
-0.245,-0.27,6752
-0.25,-0.27,6753
-0.245,-0.265,6754
-0.225,-0.25,6755
-0.215,-0.25,6756
-0.22,-0.255,6757
-0.22,-0.265,6758
-0.23,-0.26,6759
-0.235,-0.245,6760
-0.24,-0.235,6761
-0.24,-0.225,6762
-0.23,-0.25,6763
-0.225,-0.25,6764
-0.24,-0.265,6765
-0.27,-0.265,6766
-0.25,-0.245,6767
-0.255,-0.24,6768
-0.235,-0.24,6769
-0.225,-0.25,6770
-0.215,-0.275,6771
-0.24,-0.285,6772
-0.26,-0.28,6773
-0.275,-0.265,6774
-0.285,-0.27,6775
-0.315,-0.275,6776
-0.32,-0.29,6777
-0.345,-0.3,6778
-0.35,-0.285,6779
-0.35,-0.285,6780
-0.36,-0.295,6781
