MLII,V1,Sample
-0.105,0.19,0
-0.105,0.19,1
-0.105,0.19,2
-0.105,0.19,3
-0.105,0.19,4
-0.105,0.19,5
-0.105,0.19,6
-0.105,0.19,7
-0.125,0.19,8
-0.145,0.22,9
-0.15,0.225,10
-0.175,0.25,11
-0.195,0.225,12
-0.205,0.21,13
-0.2,0.21,14
-0.2,0.22,15
-0.195,0.23,16
-0.2,0.23,17
-0.2,0.215,18
-0.21,0.21,19
-0.21,0.215,20
-0.19,0.225,21
-0.19,0.23,22
-0.2,0.24,23
-0.215,0.23,24
-0.225,0.22,25
-0.225,0.225,26
-0.21,0.23,27
-0.21,0.255,28
-0.23,0.27,29
-0.245,0.27,30
-0.26,0.265,31
-0.255,0.26,32
-0.245,0.285,33
-0.23,0.295,34
-0.245,0.295,35
-0.28,0.295,36
-0.255,0.28,37
-0.165,0.275,38
-0.015,0.225,39
0.16,0.11,40
0.375,-0.04,41
0.645,-0.175,42
0.985,-0.27,43
1.37,-0.35,44
1.725,-0.395,45
1.935,-0.395,46
1.895,-0.33,47
1.625,-0.225,48
1.28,-0.12,49
0.915,-0.015,50
0.55,0.09,51
0.26,0.12,52
0.045,0.11,53
-0.11,0.105,54
-0.21,0.115,55
-0.255,0.14,56
-0.26,0.19,57
-0.235,0.22,58
-0.235,0.225,59
-0.27,0.205,60
-0.29,0.205,61
-0.305,0.23,62
-0.295,0.24,63
-0.295,0.265,64
-0.3,0.255,65
-0.33,0.24,66
-0.335,0.225,67
-0.325,0.24,68
-0.325,0.25,69
-0.315,0.26,70
-0.32,0.26,71
-0.33,0.26,72
-0.33,0.24,73
-0.325,0.24,74
-0.315,0.265,75
-0.32,0.26,76
-0.325,0.26,77
-0.325,0.245,78
-0.34,0.245,79
-0.325,0.24,80
-0.3,0.255,81
-0.3,0.265,82
-0.315,0.26,83
-0.32,0.235,84
-0.335,0.235,85
-0.33,0.24,86
-0.305,0.26,87
-0.3,0.26,88
-0.31,0.27,89
-0.325,0.25,90
-0.335,0.235,91
-0.315,0.24,92
-0.295,0.24,93
-0.31,0.255,94
-0.31,0.25,95
-0.325,0.215,96
-0.315,0.2,97
-0.3,0.215,98
-0.29,0.225,99
-0.275,0.23,100
-0.275,0.215,101
-0.285,0.195,102
-0.29,0.185,103
-0.275,0.185,104
-0.26,0.19,105
-0.245,0.2,106
-0.255,0.185,107
-0.255,0.165,108
-0.255,0.15,109
-0.23,0.14,110
-0.21,0.145,111
-0.18,0.15,112
-0.17,0.14,113
-0.17,0.11,114
-0.17,0.09,115
-0.165,0.095,116
-0.13,0.09,117
-0.11,0.085,118
-0.11,0.075,119
-0.11,0.065,120
-0.105,0.035,121
-0.095,0.04,122
-0.08,0.06,123
-0.05,0.05,124
-0.05,0.055,125
-0.05,0.04,126
-0.05,0.03,127
-0.04,0.025,128
-0.02,0.045,129
-0.015,0.07,130
-0.02,0.08,131
-0.045,0.07,132
-0.05,0.085,133
-0.05,0.095,134
-0.035,0.12,135
-0.045,0.15,136
-0.065,0.165,137
-0.105,0.18,138
-0.115,0.16,139
-0.12,0.185,140
-0.11,0.215,141
-0.115,0.245,142
-0.15,0.23,143
-0.18,0.24,144
-0.195,0.235,145
-0.195,0.245,146
-0.195,0.26,147
-0.195,0.275,148
-0.215,0.28,149
-0.245,0.275,150
-0.25,0.255,151
-0.245,0.265,152
-0.235,0.28,153
-0.235,0.295,154
-0.235,0.29,155
-0.26,0.27,156
-0.27,0.26,157
-0.255,0.27,158
-0.24,0.29,159
-0.245,0.295,160
-0.26,0.285,161
-0.285,0.27,162
-0.29,0.265,163
-0.265,0.275,164
-0.25,0.295,165
-0.255,0.3,166
-0.255,0.3,167
-0.27,0.28,168
-0.28,0.27,169
-0.26,0.28,170
-0.245,0.305,171
-0.245,0.3,172
-0.245,0.29,173
-0.27,0.275,174
-0.26,0.265,175
-0.24,0.265,176
-0.235,0.28,177
-0.24,0.305,178
-0.25,0.305,179
-0.255,0.285,180
-0.25,0.26,181
-0.225,0.28,182
-0.19,0.28,183
-0.19,0.27,184
-0.195,0.25,185
-0.195,0.225,186
-0.165,0.195,187
-0.13,0.18,188
-0.065,0.165,189
-0.02,0.115,190
-0.005,0.08,191
0.04,0.015,192
0.115,-0.04,193
0.225,-0.1,194
0.33,-0.16,195
0.415,-0.245,196
0.47,-0.32,197
0.53,-0.41,198
0.625,-0.465,199
0.77,-0.55,200
0.89,-0.6,201
1.0,-0.66,202
1.07,-0.725,203
1.155,-0.785,204
1.265,-0.825,205
1.4,-0.855,206
1.535,-0.87,207
1.66,-0.875,208
1.705,-0.885,209
1.675,-0.86,210
1.6,-0.8,211
1.525,-0.725,212
1.47,-0.625,213
1.405,-0.535,214
1.31,-0.45,215
1.225,-0.345,216
1.195,-0.25,217
1.15,-0.165,218
1.085,-0.1,219
1.01,-0.065,220
0.935,-0.055,221
0.875,-0.045,222
0.885,-0.055,223
0.9,-0.04,224
0.875,-0.045,225
0.76,-0.065,226
0.605,-0.06,227
0.455,-0.045,228
0.28,-0.005,229
0.125,0.07,230
-0.07,0.165,231
-0.245,0.255,232
-0.4,0.335,233
-0.49,0.365,234
-0.51,0.41,235
-0.545,0.42,236
-0.595,0.46,237
-0.635,0.465,238
-0.655,0.48,239
-0.675,0.485,240
-0.685,0.495,241
-0.705,0.505,242
-0.72,0.525,243
-0.72,0.525,244
-0.735,0.535,245
-0.75,0.535,246
-0.765,0.55,247
-0.75,0.545,248
-0.77,0.57,249
-0.795,0.595,250
-0.795,0.6,251
-0.82,0.6,252
-0.82,0.6,253
-0.825,0.615,254
-0.855,0.63,255
-0.86,0.65,256
-0.88,0.665,257
-0.885,0.66,258
-0.905,0.665,259
-0.905,0.68,260
-0.905,0.695,261
-0.925,0.725,262
-0.94,0.735,263
-0.975,0.735,264
-0.98,0.75,265
-0.98,0.755,266
-0.965,0.785,267
-0.965,0.8,268
-0.995,0.795,269
-1.015,0.79,270
-1.02,0.79,271
-1.025,0.815,272
-1.03,0.825,273
-1.035,0.825,274
-1.035,0.825,275
-1.04,0.81,276
-1.035,0.79,277
-1.04,0.79,278
-0.995,0.78,279
-0.99,0.775,280
-1.0,0.77,281
-1.01,0.72,282
-0.995,0.7,283
-0.965,0.675,284
-0.91,0.67,285
-0.905,0.64,286
-0.905,0.62,287
-0.885,0.585,288
-0.85,0.535,289
-0.79,0.515,290
-0.745,0.515,291
-0.72,0.49,292
-0.715,0.475,293
-0.695,0.425,294
-0.665,0.405,295
-0.605,0.4,296
-0.565,0.385,297
-0.54,0.395,298
-0.53,0.365,299
-0.515,0.33,300
-0.475,0.32,301
-0.445,0.32,302
-0.415,0.33,303
-0.41,0.315,304
-0.41,0.31,305
-0.41,0.29,306
-0.395,0.275,307
-0.38,0.295,308
-0.355,0.29,309
-0.355,0.295,310
-0.385,0.295,311
-0.39,0.285,312
-0.39,0.275,313
-0.36,0.28,314
-0.34,0.295,315
-0.35,0.31,316
-0.365,0.295,317
-0.385,0.285,318
-0.385,0.28,319
-0.36,0.295,320
-0.345,0.295,321
-0.365,0.29,322
-0.36,0.29,323
-0.37,0.295,324
-0.36,0.275,325
-0.345,0.29,326
-0.34,0.29,327
-0.36,0.29,328
-0.37,0.29,329
-0.37,0.265,330
-0.355,0.275,331
-0.335,0.28,332
-0.33,0.27,333
-0.345,0.28,334
-0.35,0.275,335
-0.355,0.27,336
-0.335,0.255,337
-0.33,0.255,338
-0.32,0.265,339
-0.32,0.275,340
-0.325,0.275,341
-0.34,0.255,342
-0.32,0.245,343
-0.305,0.245,344
-0.305,0.255,345
-0.295,0.265,346
-0.29,0.265,347
-0.3,0.255,348
-0.3,0.255,349
-0.295,0.255,350
-0.29,0.26,351
-0.28,0.26,352
-0.295,0.265,353
-0.305,0.26,354
-0.3,0.245,355
-0.29,0.25,356
-0.28,0.245,357
-0.285,0.255,358
-0.28,0.26,359
-0.315,0.23,360
-0.285,0.23,361
-0.275,0.23,362
-0.265,0.255,363
-0.26,0.255,364
-0.275,0.265,365
-0.29,0.245,366
-0.28,0.225,367
-0.275,0.235,368
-0.265,0.245,369
-0.26,0.26,370
-0.27,0.245,371
-0.285,0.235,372
-0.28,0.23,373
-0.265,0.23,374
-0.255,0.23,375
-0.26,0.245,376
-0.27,0.245,377
-0.28,0.23,378
-0.28,0.215,379
-0.27,0.215,380
-0.26,0.245,381
-0.26,0.245,382
-0.255,0.235,383
-0.275,0.21,384
-0.29,0.205,385
-0.275,0.22,386
-0.25,0.24,387
-0.255,0.25,388
-0.26,0.24,389
-0.285,0.22,390
-0.29,0.22,391
-0.28,0.225,392
-0.26,0.235,393
-0.25,0.25,394
-0.285,0.24,395
-0.28,0.215,396
-0.28,0.205,397
-0.265,0.22,398
-0.245,0.23,399
-0.235,0.245,400
-0.265,0.235,401
-0.28,0.215,402
-0.28,0.215,403
-0.255,0.215,404
-0.235,0.23,405
-0.23,0.24,406
-0.25,0.22,407
-0.26,0.22,408
-0.26,0.205,409
-0.235,0.21,410
-0.235,0.225,411
-0.23,0.22,412
-0.25,0.22,413
-0.255,0.2,414
-0.255,0.2,415
-0.235,0.22,416
-0.22,0.22,417
-0.235,0.225,418
-0.245,0.215,419
-0.26,0.21,420
-0.255,0.2,421
-0.23,0.215,422
-0.21,0.225,423
-0.21,0.23,424
-0.23,0.23,425
-0.23,0.225,426
-0.21,0.22,427
-0.18,0.24,428
-0.15,0.255,429
-0.16,0.255,430
-0.17,0.255,431
-0.175,0.25,432
-0.135,0.24,433
-0.09,0.245,434
-0.065,0.255,435
-0.065,0.24,436
-0.095,0.23,437
-0.105,0.195,438
-0.095,0.175,439
-0.09,0.185,440
-0.07,0.19,441
-0.085,0.18,442
-0.125,0.17,443
-0.145,0.17,444
-0.15,0.165,445
-0.145,0.17,446
-0.165,0.18,447
-0.205,0.185,448
-0.245,0.19,449
-0.25,0.195,450
-0.235,0.19,451
-0.21,0.19,452
-0.22,0.21,453
-0.24,0.215,454
-0.255,0.205,455
-0.265,0.195,456
-0.255,0.2,457
-0.235,0.19,458
-0.25,0.2,459
-0.27,0.215,460
-0.29,0.2,461
-0.28,0.195,462
-0.245,0.2,463
-0.22,0.2,464
-0.235,0.21,465
-0.245,0.21,466
-0.26,0.205,467
-0.26,0.19,468
-0.25,0.185,469
-0.225,0.19,470
-0.225,0.19,471
-0.25,0.17,472
-0.27,0.18,473
-0.26,0.17,474
-0.2,0.165,475
-0.085,0.13,476
0.06,0.085,477
0.215,0.02,478
0.42,-0.04,479
0.68,-0.045,480
0.98,-0.035,481
1.265,-0.045,482
1.465,-0.04,483
1.485,0.01,484
1.26,0.085,485
0.935,0.13,486
0.59,0.135,487
0.24,0.15,488
-0.03,0.13,489
-0.18,0.105,490
-0.255,0.09,491
-0.255,0.095,492
-0.27,0.11,493
-0.27,0.155,494
-0.275,0.18,495
-0.265,0.21,496
-0.27,0.215,497
-0.275,0.21,498
-0.285,0.21,499
-0.295,0.215,500
-0.305,0.235,501
-0.31,0.23,502
-0.31,0.23,503
-0.31,0.225,504
-0.315,0.22,505
-0.315,0.215,506
-0.32,0.22,507
-0.305,0.23,508
-0.295,0.23,509
-0.29,0.225,510
-0.3,0.215,511
-0.32,0.22,512
-0.295,0.225,513
-0.295,0.225,514
-0.295,0.24,515
-0.295,0.22,516
-0.295,0.21,517
-0.285,0.22,518
-0.28,0.23,519
-0.28,0.245,520
-0.26,0.24,521
-0.29,0.225,522
-0.27,0.205,523
-0.265,0.2,524
-0.25,0.21,525
-0.245,0.215,526
-0.245,0.215,527
-0.27,0.195,528
-0.255,0.18,529
-0.245,0.165,530
-0.225,0.185,531
-0.215,0.195,532
-0.215,0.18,533
-0.23,0.16,534
-0.225,0.155,535
-0.195,0.16,536
-0.195,0.16,537
-0.185,0.175,538
-0.195,0.15,539
-0.185,0.135,540
-0.17,0.12,541
-0.15,0.12,542
-0.13,0.13,543
-0.12,0.12,544
-0.125,0.115,545
-0.12,0.085,546
-0.11,0.065,547
-0.08,0.055,548
-0.06,0.055,549
-0.035,0.05,550
-0.03,0.04,551
-0.03,0.005,552
-0.015,-0.01,553
0.005,-0.015,554
0.04,-0.015,555
0.06,-0.015,556
0.07,-0.02,557
0.06,-0.055,558
0.065,-0.075,559
0.09,-0.065,560
0.125,-0.075,561
0.15,-0.06,562
0.12,-0.06,563
0.125,-0.085,564
0.12,-0.09,565
0.14,-0.09,566
0.17,-0.06,567
0.175,-0.045,568
0.16,-0.05,569
0.145,-0.055,570
0.125,-0.05,571
0.14,-0.02,572
0.145,0.0,573
0.14,0.03,574
0.11,0.045,575
0.07,0.045,576
0.04,0.055,577
0.03,0.085,578
0.04,0.125,579
0.02,0.15,580
-0.02,0.155,581
-0.06,0.155,582
-0.07,0.17,583
-0.08,0.195,584
-0.075,0.215,585
-0.085,0.245,586
-0.115,0.24,587
-0.16,0.24,588
-0.18,0.24,589
-0.165,0.26,590
-0.165,0.27,591
-0.165,0.29,592
-0.205,0.28,593
-0.235,0.27,594
-0.23,0.26,595
-0.22,0.28,596
-0.2,0.29,597
-0.21,0.305,598
-0.225,0.305,599
-0.255,0.29,600
-0.25,0.28,601
-0.225,0.295,602
-0.22,0.3,603
-0.21,0.315,604
-0.235,0.305,605
-0.25,0.285,606
-0.255,0.28,607
-0.23,0.285,608
-0.225,0.305,609
-0.225,0.315,610
-0.225,0.305,611
-0.255,0.29,612
-0.245,0.275,613
-0.23,0.285,614
-0.21,0.285,615
-0.2,0.29,616
-0.215,0.28,617
-0.235,0.275,618
-0.23,0.26,619
-0.22,0.255,620
-0.205,0.275,621
-0.2,0.285,622
-0.23,0.27,623
-0.245,0.25,624
-0.235,0.24,625
-0.215,0.245,626
-0.2,0.275,627
-0.195,0.27,628
-0.22,0.265,629
-0.25,0.245,630
-0.26,0.25,631
-0.23,0.26,632
-0.22,0.275,633
-0.21,0.275,634
-0.225,0.265,635
-0.245,0.26,636
-0.22,0.265,637
-0.2,0.275,638
-0.175,0.3,639
-0.16,0.305,640
-0.18,0.3,641
-0.18,0.285,642
-0.155,0.275,643
-0.115,0.27,644
-0.08,0.29,645
-0.06,0.295,646
-0.07,0.27,647
-0.08,0.235,648
-0.085,0.225,649
-0.065,0.22,650
-0.055,0.21,651
-0.06,0.215,652
-0.085,0.225,653
-0.115,0.195,654
-0.125,0.19,655
-0.135,0.21,656
-0.13,0.215,657
-0.14,0.225,658
-0.18,0.225,659
-0.22,0.21,660
-0.24,0.22,661
-0.245,0.245,662
-0.24,0.28,663
-0.235,0.305,664
-0.255,0.285,665
-0.26,0.275,666
-0.235,0.26,667
-0.195,0.23,668
-0.15,0.215,669
-0.1,0.17,670
-0.06,0.125,671
-0.035,0.06,672
0.035,0.0,673
0.115,-0.06,674
0.2,-0.12,675
0.29,-0.22,676
0.35,-0.335,677
0.415,-0.445,678
0.49,-0.54,679
0.57,-0.6,680
0.63,-0.65,681
0.67,-0.705,682
0.69,-0.79,683
0.745,-0.87,684
0.83,-0.94,685
0.94,-0.98,686
1.025,-0.995,687
1.06,-1.01,688
1.085,-1.045,689
1.19,-1.1,690
1.37,-1.13,691
1.51,-1.155,692
1.605,-1.165,693
1.66,-1.18,694
1.69,-1.16,695
1.765,-1.115,696
1.855,-1.05,697
1.935,-0.925,698
1.945,-0.765,699
1.735,-0.585,700
1.335,-0.36,701
0.93,-0.18,702
0.61,-0.035,703
0.33,0.085,704
0.1,0.17,705
-0.1,0.21,706
-0.265,0.255,707
-0.375,0.29,708
-0.41,0.31,709
-0.405,0.345,710
-0.415,0.385,711
-0.46,0.405,712
-0.495,0.405,713
-0.545,0.415,714
-0.545,0.42,715
-0.545,0.435,716
-0.545,0.465,717
-0.56,0.465,718
-0.59,0.465,719
-0.615,0.465,720
-0.61,0.46,721
-0.61,0.475,722
-0.605,0.49,723
-0.6,0.505,724
-0.63,0.495,725
-0.645,0.495,726
-0.63,0.49,727
-0.615,0.515,728
-0.615,0.525,729
-0.615,0.545,730
-0.66,0.54,731
-0.685,0.54,732
-0.675,0.535,733
-0.66,0.565,734
-0.65,0.59,735
-0.655,0.6,736
-0.69,0.62,737
-0.72,0.605,738
-0.725,0.615,739
-0.7,0.64,740
-0.7,0.665,741
-0.715,0.685,742
-0.745,0.685,743
-0.76,0.685,744
-0.765,0.695,745
-0.755,0.715,746
-0.755,0.745,747
-0.755,0.76,748
-0.79,0.76,749
-0.805,0.76,750
-0.795,0.755,751
-0.785,0.775,752
-0.77,0.8,753
-0.78,0.815,754
-0.8,0.815,755
-0.825,0.815,756
-0.83,0.805,757
-0.82,0.83,758
-0.8,0.845,759
-0.79,0.855,760
-0.805,0.84,761
-0.84,0.82,762
-0.83,0.815,763
-0.805,0.805,764
-0.785,0.81,765
-0.765,0.805,766
-0.765,0.78,767
-0.78,0.745,768
-0.76,0.735,769
-0.715,0.72,770
-0.67,0.71,771
-0.67,0.69,772
-0.675,0.66,773
-0.675,0.61,774
-0.635,0.575,775
-0.59,0.56,776
-0.555,0.555,777
-0.535,0.545,778
-0.545,0.495,779
-0.52,0.47,780
-0.495,0.44,781
-0.445,0.41,782
-0.415,0.41,783
-0.395,0.4,784
-0.415,0.375,785
-0.42,0.36,786
-0.38,0.34,787
-0.36,0.33,788
-0.35,0.35,789
-0.34,0.325,790
-0.35,0.315,791
-0.365,0.305,792
-0.37,0.29,793
-0.34,0.3,794
-0.31,0.315,795
-0.325,0.315,796
-0.355,0.305,797
-0.37,0.285,798
-0.355,0.285,799
-0.34,0.295,800
-0.33,0.305,801
-0.33,0.3,802
-0.37,0.3,803
-0.385,0.285,804
-0.36,0.28,805
-0.35,0.285,806
-0.34,0.305,807
-0.325,0.3,808
-0.355,0.285,809
-0.375,0.265,810
-0.35,0.255,811
-0.345,0.285,812
-0.33,0.29,813
-0.325,0.295,814
-0.36,0.295,815
-0.365,0.28,816
-0.35,0.275,817
-0.34,0.285,818
-0.32,0.3,819
-0.33,0.29,820
-0.35,0.285,821
-0.355,0.265,822
-0.355,0.275,823
-0.335,0.275,824
-0.325,0.3,825
-0.33,0.3,826
-0.345,0.31,827
-0.355,0.295,828
-0.355,0.285,829
-0.325,0.29,830
-0.305,0.315,831
-0.285,0.295,832
-0.295,0.265,833
-0.275,0.245,834
-0.245,0.225,835
-0.19,0.21,836
-0.15,0.185,837
-0.135,0.155,838
-0.11,0.09,839
-0.055,0.025,840
0.045,-0.055,841
0.17,-0.145,842
0.27,-0.245,843
0.39,-0.335,844
0.49,-0.425,845
0.595,-0.535,846
0.71,-0.635,847
0.805,-0.74,848
0.91,-0.8,849
0.975,-0.84,850
1.035,-0.865,851
1.105,-0.885,852
1.185,-0.9,853
1.23,-0.875,854
1.23,-0.82,855
1.175,-0.75,856
1.1,-0.69,857
1.025,-0.625,858
0.995,-0.525,859
0.98,-0.405,860
0.97,-0.27,861
0.93,-0.195,862
0.885,-0.145,863
0.855,-0.115,864
0.865,-0.085,865
0.88,-0.025,866
0.88,0.005,867
0.895,0.025,868
0.88,0.025,869
0.885,0.02,870
0.845,-0.005,871
0.785,0.0,872
0.655,0.025,873
0.52,0.07,874
0.3,0.12,875
0.095,0.19,876
-0.075,0.24,877
-0.205,0.3,878
-0.305,0.33,879
-0.375,0.365,880
-0.43,0.38,881
-0.475,0.385,882
-0.49,0.4,883
-0.53,0.415,884
-0.575,0.425,885
-0.62,0.445,886
-0.665,0.45,887
-0.69,0.475,888
-0.71,0.495,889
-0.715,0.48,890
-0.725,0.505,891
-0.765,0.52,892
-0.805,0.52,893
-0.82,0.51,894
-0.81,0.525,895
-0.8,0.535,896
-0.81,0.545,897
-0.83,0.55,898
-0.845,0.55,899
-0.865,0.545,900
-0.88,0.555,901
-0.87,0.56,902
-0.88,0.58,903
-0.895,0.595,904
-0.92,0.61,905
-0.94,0.605,906
-0.945,0.6,907
-0.96,0.61,908
-0.97,0.635,909
-0.97,0.635,910
-1.01,0.665,911
-1.015,0.64,912
-1.015,0.65,913
-1.015,0.665,914
-1.02,0.68,915
-1.06,0.695,916
-1.08,0.7,917
-1.105,0.685,918
-1.095,0.69,919
-1.09,0.695,920
-1.11,0.695,921
-1.12,0.695,922
-1.14,0.695,923
-1.14,0.67,924
-1.14,0.65,925
-1.14,0.64,926
-1.125,0.64,927
-1.11,0.625,928
-1.11,0.62,929
-1.105,0.6,930
-1.1,0.59,931
-1.08,0.57,932
-1.05,0.565,933
-1.01,0.555,934
-0.985,0.525,935
-0.97,0.49,936
-0.96,0.485,937
-0.905,0.465,938
-0.865,0.46,939
-0.83,0.43,940
-0.81,0.41,941
-0.775,0.385,942
-0.735,0.36,943
-0.69,0.36,944
-0.655,0.36,945
-0.615,0.35,946
-0.6,0.34,947
-0.58,0.31,948
-0.575,0.3,949
-0.54,0.29,950
-0.51,0.3,951
-0.485,0.305,952
-0.485,0.285,953
-0.49,0.275,954
-0.48,0.27,955
-0.455,0.27,956
-0.455,0.28,957
-0.445,0.29,958
-0.445,0.29,959
-0.455,0.28,960
-0.465,0.265,961
-0.43,0.26,962
-0.42,0.285,963
-0.415,0.29,964
-0.44,0.29,965
-0.465,0.29,966
-0.44,0.28,967
-0.42,0.28,968
-0.4,0.3,969
-0.41,0.3,970
-0.41,0.29,971
-0.445,0.265,972
-0.435,0.26,973
-0.42,0.27,974
-0.39,0.285,975
-0.395,0.295,976
-0.395,0.285,977
-0.42,0.275,978
-0.425,0.265,979
-0.405,0.275,980
-0.395,0.27,981
-0.385,0.29,982
-0.385,0.28,983
-0.41,0.255,984
-0.395,0.245,985
-0.385,0.25,986
-0.365,0.265,987
-0.355,0.275,988
-0.375,0.265,989
-0.395,0.25,990
-0.39,0.24,991
-0.38,0.25,992
-0.35,0.265,993
-0.35,0.265,994
-0.365,0.26,995
-0.385,0.255,996
-0.39,0.24,997
-0.345,0.25,998
-0.34,0.265,999
-0.36,0.25,1000
-0.38,0.235,1001
-0.375,0.23,1002
-0.34,0.24,1003
-0.325,0.245,1004
-0.335,0.245,1005
-0.35,0.235,1006
-0.355,0.225,1007
-0.34,0.21,1008
-0.32,0.22,1009
-0.315,0.245,1010
-0.315,0.235,1011
-0.335,0.235,1012
-0.34,0.215,1013
-0.335,0.22,1014
-0.31,0.225,1015
-0.305,0.235,1016
-0.32,0.23,1017
-0.365,0.225,1018
-0.38,0.205,1019
-0.345,0.205,1020
-0.34,0.22,1021
-0.32,0.215,1022
-0.33,0.225,1023
-0.33,0.225,1024
-0.345,0.205,1025
-0.335,0.195,1026
-0.32,0.215,1027
-0.305,0.21,1028
-0.305,0.21,1029
-0.325,0.21,1030
-0.325,0.2,1031
-0.33,0.185,1032
-0.29,0.2,1033
-0.29,0.22,1034
-0.295,0.215,1035
-0.32,0.205,1036
-0.33,0.2,1037
-0.33,0.19,1038
-0.295,0.2,1039
-0.285,0.215,1040
-0.305,0.205,1041
-0.34,0.2,1042
-0.335,0.19,1043
-0.325,0.19,1044
-0.325,0.19,1045
-0.305,0.205,1046
-0.315,0.21,1047
-0.325,0.21,1048
-0.335,0.2,1049
-0.325,0.19,1050
-0.3,0.2,1051
-0.295,0.2,1052
-0.31,0.19,1053
-0.32,0.19,1054
-0.33,0.17,1055
-0.32,0.165,1056
-0.31,0.185,1057
-0.28,0.2,1058
-0.295,0.2,1059
-0.32,0.185,1060
-0.335,0.17,1061
-0.33,0.175,1062
-0.32,0.175,1063
-0.295,0.18,1064
-0.285,0.185,1065
-0.32,0.195,1066
-0.32,0.165,1067
-0.31,0.175,1068
-0.3,0.18,1069
-0.27,0.195,1070
-0.275,0.185,1071
-0.3,0.175,1072
-0.31,0.175,1073
-0.305,0.155,1074
-0.285,0.18,1075
-0.275,0.195,1076
-0.275,0.195,1077
-0.3,0.185,1078
-0.315,0.165,1079
-0.32,0.165,1080
-0.285,0.165,1081
-0.26,0.185,1082
-0.28,0.19,1083
-0.295,0.175,1084
-0.295,0.155,1085
-0.285,0.165,1086
-0.28,0.155,1087
-0.275,0.175,1088
-0.285,0.17,1089
-0.29,0.165,1090
-0.3,0.16,1091
-0.305,0.16,1092
-0.29,0.155,1093
-0.265,0.18,1094
-0.29,0.19,1095
-0.285,0.165,1096
-0.295,0.15,1097
-0.295,0.145,1098
-0.28,0.165,1099
-0.26,0.17,1100
-0.265,0.18,1101
-0.29,0.175,1102
-0.315,0.16,1103
-0.305,0.155,1104
-0.285,0.165,1105
-0.26,0.165,1106
-0.285,0.175,1107
-0.28,0.17,1108
-0.3,0.15,1109
-0.295,0.145,1110
-0.27,0.16,1111
-0.26,0.17,1112
-0.26,0.17,1113
-0.28,0.17,1114
-0.29,0.155,1115
-0.29,0.14,1116
-0.285,0.16,1117
-0.255,0.185,1118
-0.25,0.18,1119
-0.255,0.17,1120
-0.265,0.16,1121
-0.245,0.165,1122
-0.225,0.17,1123
-0.2,0.195,1124
-0.185,0.2,1125
-0.19,0.195,1126
-0.19,0.175,1127
-0.185,0.17,1128
-0.155,0.17,1129
-0.11,0.155,1130
-0.1,0.155,1131
-0.095,0.125,1132
-0.105,0.1,1133
-0.1,0.09,1134
-0.095,0.095,1135
-0.085,0.105,1136
-0.08,0.12,1137
-0.12,0.105,1138
-0.15,0.105,1139
-0.17,0.085,1140
-0.145,0.08,1141
-0.15,0.1,1142
-0.155,0.095,1143
-0.19,0.09,1144
-0.2,0.065,1145
-0.205,0.075,1146
-0.235,0.09,1147
-0.21,0.12,1148
-0.21,0.135,1149
-0.23,0.135,1150
-0.245,0.105,1151
-0.265,0.105,1152
-0.245,0.1,1153
-0.225,0.12,1154
-0.225,0.125,1155
-0.23,0.125,1156
-0.26,0.105,1157
-0.245,0.095,1158
-0.23,0.105,1159
-0.22,0.12,1160
-0.225,0.11,1161
-0.24,0.11,1162
-0.245,0.105,1163
-0.255,0.1,1164
-0.235,0.105,1165
-0.23,0.11,1166
-0.22,0.12,1167
-0.24,0.1,1168
-0.25,0.07,1169
-0.27,0.065,1170
-0.275,0.065,1171
-0.255,0.075,1172
-0.205,0.085,1173
-0.115,0.045,1174
0.025,-0.03,1175
0.21,-0.11,1176
0.485,-0.145,1177
0.795,-0.13,1178
1.08,-0.12,1179
1.33,-0.115,1180
1.52,-0.13,1181
1.56,-0.095,1182
1.355,-0.025,1183
0.995,0.04,1184
0.57,0.095,1185
0.175,0.085,1186
-0.095,0.04,1187
-0.2,0.01,1188
-0.22,-0.01,1189
-0.225,0.0,1190
-0.22,0.025,1191
-0.25,0.06,1192
-0.255,0.08,1193
-0.25,0.085,1194
-0.22,0.095,1195
-0.225,0.11,1196
-0.24,0.125,1197
-0.25,0.11,1198
-0.265,0.11,1199
-0.275,0.11,1200
-0.25,0.105,1201
-0.26,0.12,1202
-0.285,0.12,1203
-0.3,0.125,1204
-0.29,0.115,1205
-0.29,0.11,1206
-0.265,0.095,1207
-0.26,0.11,1208
-0.265,0.115,1209
-0.275,0.11,1210
-0.28,0.1,1211
-0.285,0.075,1212
-0.255,0.095,1213
-0.235,0.115,1214
-0.265,0.115,1215
-0.27,0.105,1216
-0.275,0.085,1217
-0.27,0.08,1218
-0.25,0.09,1219
-0.225,0.095,1220
-0.22,0.105,1221
-0.235,0.105,1222
-0.24,0.09,1223
-0.24,0.065,1224
-0.23,0.075,1225
-0.21,0.085,1226
-0.205,0.085,1227
-0.22,0.07,1228
-0.21,0.06,1229
-0.195,0.045,1230
-0.19,0.05,1231
-0.175,0.06,1232
-0.16,0.06,1233
-0.16,0.045,1234
-0.165,0.035,1235
-0.155,0.01,1236
-0.13,0.02,1237
-0.135,0.035,1238
-0.125,0.035,1239
-0.115,0.015,1240
-0.11,-0.005,1241
-0.11,-0.015,1242
-0.08,-0.025,1243
-0.065,-0.03,1244
-0.05,-0.02,1245
-0.06,-0.04,1246
-0.05,-0.065,1247
-0.045,-0.075,1248
-0.005,-0.085,1249
0.015,-0.08,1250
0.02,-0.09,1251
0.025,-0.105,1252
0.015,-0.135,1253
0.035,-0.145,1254
0.065,-0.145,1255
0.105,-0.15,1256
0.115,-0.155,1257
0.105,-0.165,1258
0.095,-0.19,1259
0.125,-0.18,1260
0.14,-0.2,1261
0.17,-0.185,1262
0.165,-0.18,1263
0.155,-0.19,1264
0.15,-0.205,1265
0.155,-0.215,1266
0.18,-0.21,1267
0.195,-0.205,1268
0.215,-0.18,1269
0.2,-0.19,1270
0.205,-0.185,1271
0.205,-0.19,1272
0.21,-0.175,1273
0.215,-0.155,1274
0.22,-0.135,1275
0.185,-0.13,1276
0.175,-0.125,1277
0.17,-0.12,1278
0.17,-0.09,1279
0.18,-0.06,1280
0.16,-0.04,1281
0.13,-0.025,1282
0.1,-0.025,1283
0.07,-0.015,1284
0.05,0.01,1285
0.035,0.025,1286
0.025,0.04,1287
0.01,0.06,1288
-0.015,0.05,1289
-0.035,0.05,1290
-0.045,0.085,1291
-0.06,0.095,1292
-0.065,0.1,1293
-0.08,0.1,1294
-0.09,0.1,1295
-0.09,0.09,1296
-0.095,0.1,1297
-0.085,0.115,1298
-0.09,0.12,1299
-0.095,0.125,1300
-0.11,0.115,1301
-0.11,0.115,1302
-0.105,0.12,1303
-0.09,0.13,1304
-0.095,0.13,1305
-0.12,0.13,1306
-0.12,0.125,1307
-0.125,0.115,1308
-0.105,0.115,1309
-0.1,0.125,1310
-0.105,0.125,1311
-0.105,0.12,1312
-0.1,0.11,1313
-0.11,0.095,1314
-0.1,0.095,1315
-0.1,0.105,1316
-0.11,0.115,1317
-0.115,0.105,1318
-0.12,0.08,1319
-0.12,0.075,1320
-0.11,0.085,1321
-0.09,0.105,1322
-0.1,0.1,1323
-0.115,0.1,1324
-0.115,0.085,1325
-0.105,0.07,1326
-0.095,0.075,1327
-0.09,0.085,1328
-0.09,0.095,1329
-0.1,0.09,1330
-0.105,0.09,1331
-0.09,0.075,1332
-0.1,0.08,1333
-0.07,0.095,1334
-0.075,0.095,1335
-0.09,0.105,1336
-0.09,0.09,1337
-0.08,0.09,1338
-0.045,0.105,1339
-0.05,0.13,1340
-0.035,0.12,1341
-0.03,0.12,1342
-0.03,0.105,1343
-0.025,0.105,1344
0.025,0.11,1345
0.035,0.13,1346
0.06,0.125,1347
0.05,0.13,1348
0.045,0.1,1349
0.065,0.09,1350
0.08,0.08,1351
0.09,0.08,1352
0.1,0.075,1353
0.095,0.055,1354
0.11,0.01,1355
0.15,-0.02,1356
0.195,-0.06,1357
0.225,-0.09,1358
0.275,-0.16,1359
0.315,-0.24,1360
0.36,-0.345,1361
0.45,-0.45,1362
0.555,-0.54,1363
0.625,-0.6,1364
0.675,-0.655,1365
0.71,-0.715,1366
0.78,-0.775,1367
0.85,-0.835,1368
0.935,-0.865,1369
1.045,-0.89,1370
1.13,-0.92,1371
1.195,-0.955,1372
1.245,-0.985,1373
1.305,-1.035,1374
1.415,-1.065,1375
1.535,-1.055,1376
1.635,-1.045,1377
1.645,-1.005,1378
1.61,-0.97,1379
1.56,-0.91,1380
1.53,-0.83,1381
1.5,-0.755,1382
1.45,-0.665,1383
1.37,-0.575,1384
1.305,-0.51,1385
1.255,-0.435,1386
1.235,-0.355,1387
1.185,-0.295,1388
1.145,-0.27,1389
1.085,-0.255,1390
1.04,-0.26,1391
1.01,-0.26,1392
1.005,-0.25,1393
0.995,-0.235,1394
0.96,-0.23,1395
0.89,-0.23,1396
0.785,-0.24,1397
0.68,-0.235,1398
0.56,-0.19,1399
0.395,-0.13,1400
0.19,-0.05,1401
-0.025,0.03,1402
-0.185,0.095,1403
-0.29,0.15,1404
-0.36,0.2,1405
-0.38,0.25,1406
-0.43,0.27,1407
-0.48,0.28,1408
-0.5,0.275,1409
-0.51,0.29,1410
-0.515,0.3,1411
-0.53,0.32,1412
-0.55,0.335,1413
-0.58,0.345,1414
-0.59,0.345,1415
-0.595,0.34,1416
-0.585,0.365,1417
-0.595,0.385,1418
-0.605,0.395,1419
-0.615,0.385,1420
-0.63,0.39,1421
-0.63,0.4,1422
-0.63,0.405,1423
-0.63,0.44,1424
-0.645,0.455,1425
-0.675,0.475,1426
-0.695,0.48,1427
-0.7,0.48,1428
-0.695,0.515,1429
-0.71,0.53,1430
-0.735,0.56,1431
-0.75,0.56,1432
-0.76,0.555,1433
-0.77,0.565,1434
-0.76,0.605,1435
-0.765,0.62,1436
-0.77,0.655,1437
-0.805,0.66,1438
-0.825,0.65,1439
-0.825,0.655,1440
-0.815,0.675,1441
-0.82,0.69,1442
-0.83,0.715,1443
-0.865,0.705,1444
-0.87,0.71,1445
-0.885,0.715,1446
-0.88,0.715,1447
-0.88,0.725,1448
-0.875,0.735,1449
-0.885,0.72,1450
-0.9,0.7,1451
-0.885,0.705,1452
-0.89,0.695,1453
-0.885,0.705,1454
-0.895,0.7,1455
-0.89,0.67,1456
-0.89,0.65,1457
-0.88,0.625,1458
-0.85,0.63,1459
-0.835,0.61,1460
-0.815,0.61,1461
-0.825,0.58,1462
-0.81,0.545,1463
-0.785,0.505,1464
-0.745,0.495,1465
-0.705,0.465,1466
-0.69,0.44,1467
-0.68,0.415,1468
-0.67,0.375,1469
-0.615,0.335,1470
-0.57,0.325,1471
-0.52,0.315,1472
-0.49,0.285,1473
-0.47,0.255,1474
-0.45,0.24,1475
-0.41,0.205,1476
-0.38,0.2,1477
-0.345,0.205,1478
-0.32,0.195,1479
-0.32,0.19,1480
-0.305,0.145,1481
-0.28,0.14,1482
-0.24,0.135,1483
-0.225,0.14,1484
-0.215,0.14,1485
-0.23,0.14,1486
-0.225,0.11,1487
-0.225,0.115,1488
-0.22,0.11,1489
-0.2,0.13,1490
-0.19,0.115,1491
-0.215,0.105,1492
-0.225,0.1,1493
-0.225,0.1,1494
-0.2,0.11,1495
-0.205,0.115,1496
-0.2,0.13,1497
-0.215,0.11,1498
-0.235,0.11,1499
-0.22,0.095,1500
-0.2,0.105,1501
-0.19,0.12,1502
-0.195,0.125,1503
-0.225,0.13,1504
-0.22,0.105,1505
-0.215,0.11,1506
-0.21,0.11,1507
-0.205,0.125,1508
-0.205,0.125,1509
-0.225,0.115,1510
-0.24,0.12,1511
-0.225,0.11,1512
-0.215,0.12,1513
-0.21,0.125,1514
-0.215,0.135,1515
-0.23,0.13,1516
-0.25,0.115,1517
-0.24,0.11,1518
-0.205,0.125,1519
-0.2,0.14,1520
-0.2,0.14,1521
-0.21,0.13,1522
-0.22,0.12,1523
-0.22,0.105,1524
-0.2,0.125,1525
-0.2,0.135,1526
-0.195,0.13,1527
-0.2,0.13,1528
-0.215,0.12,1529
-0.215,0.115,1530
-0.185,0.115,1531
-0.185,0.125,1532
-0.18,0.125,1533
-0.19,0.12,1534
-0.2,0.105,1535
-0.19,0.09,1536
-0.17,0.1,1537
-0.16,0.125,1538
-0.17,0.12,1539
-0.175,0.115,1540
-0.185,0.1,1541
-0.18,0.1,1542
-0.16,0.105,1543
-0.15,0.12,1544
-0.145,0.125,1545
-0.165,0.125,1546
-0.17,0.11,1547
-0.165,0.115,1548
-0.15,0.13,1549
-0.14,0.15,1550
-0.14,0.14,1551
-0.13,0.13,1552
-0.125,0.12,1553
-0.11,0.095,1554
-0.075,0.09,1555
-0.035,0.1,1556
0.005,0.065,1557
0.035,0.025,1558
0.07,-0.015,1559
0.135,-0.045,1560
0.205,-0.07,1561
0.265,-0.1,1562
0.33,-0.14,1563
0.39,-0.235,1564
0.465,-0.355,1565
0.545,-0.44,1566
0.645,-0.52,1567
0.755,-0.585,1568
0.845,-0.65,1569
0.905,-0.725,1570
0.97,-0.795,1571
1.05,-0.865,1572
1.145,-0.935,1573
1.26,-0.96,1574
1.34,-0.99,1575
1.4,-1.015,1576
1.455,-1.055,1577
1.535,-1.09,1578
1.645,-1.085,1579
1.69,-1.07,1580
1.645,-1.04,1581
1.58,-1.0,1582
1.49,-0.955,1583
1.435,-0.885,1584
1.395,-0.805,1585
1.355,-0.72,1586
1.32,-0.64,1587
1.27,-0.535,1588
1.225,-0.445,1589
1.18,-0.39,1590
1.175,-0.315,1591
1.165,-0.285,1592
1.145,-0.255,1593
1.115,-0.235,1594
1.08,-0.235,1595
1.085,-0.215,1596
1.105,-0.175,1597
1.1,-0.155,1598
1.045,-0.15,1599
0.92,-0.15,1600
0.79,-0.145,1601
0.625,-0.12,1602
0.43,-0.055,1603
0.225,0.025,1604
0.015,0.09,1605
-0.135,0.16,1606
-0.25,0.205,1607
-0.34,0.225,1608
-0.38,0.26,1609
-0.405,0.295,1610
-0.44,0.315,1611
-0.48,0.325,1612
-0.505,0.315,1613
-0.52,0.33,1614
-0.525,0.345,1615
-0.53,0.37,1616
-0.545,0.38,1617
-0.575,0.365,1618
-0.6,0.375,1619
-0.615,0.375,1620
-0.605,0.4,1621
-0.6,0.42,1622
-0.62,0.435,1623
-0.65,0.435,1624
-0.67,0.445,1625
-0.67,0.44,1626
-0.67,0.47,1627
-0.675,0.485,1628
-0.67,0.5,1629
-0.705,0.51,1630
-0.71,0.5,1631
-0.73,0.505,1632
-0.73,0.53,1633
-0.725,0.555,1634
-0.75,0.575,1635
-0.775,0.585,1636
-0.79,0.595,1637
-0.805,0.585,1638
-0.79,0.615,1639
-0.8,0.64,1640
-0.805,0.66,1641
-0.825,0.655,1642
-0.835,0.66,1643
-0.845,0.66,1644
-0.85,0.68,1645
-0.845,0.705,1646
-0.865,0.72,1647
-0.88,0.715,1648
-0.885,0.715,1649
-0.89,0.72,1650
-0.88,0.725,1651
-0.895,0.725,1652
-0.905,0.73,1653
-0.92,0.735,1654
-0.935,0.7,1655
-0.92,0.69,1656
-0.9,0.69,1657
-0.9,0.705,1658
-0.89,0.7,1659
-0.905,0.68,1660
-0.905,0.655,1661
-0.9,0.64,1662
-0.875,0.625,1663
-0.85,0.6,1664
-0.815,0.6,1665
-0.81,0.565,1666
-0.79,0.53,1667
-0.76,0.49,1668
-0.74,0.46,1669
-0.685,0.435,1670
-0.645,0.415,1671
-0.63,0.38,1672
-0.6,0.345,1673
-0.56,0.32,1674
-0.505,0.305,1675
-0.465,0.29,1676
-0.46,0.27,1677
-0.42,0.245,1678
-0.415,0.215,1679
-0.365,0.195,1680
-0.305,0.18,1681
-0.285,0.185,1682
-0.275,0.185,1683
-0.27,0.16,1684
-0.255,0.14,1685
-0.24,0.125,1686
-0.2,0.125,1687
-0.185,0.13,1688
-0.17,0.12,1689
-0.18,0.125,1690
-0.185,0.105,1691
-0.175,0.095,1692
-0.16,0.1,1693
-0.155,0.115,1694
-0.15,0.115,1695
-0.18,0.105,1696
-0.185,0.095,1697
-0.175,0.09,1698
-0.165,0.105,1699
-0.16,0.105,1700
-0.16,0.12,1701
-0.18,0.105,1702
-0.19,0.09,1703
-0.185,0.09,1704
-0.165,0.1,1705
-0.155,0.11,1706
-0.165,0.105,1707
-0.2,0.115,1708
-0.195,0.1,1709
-0.19,0.1,1710
-0.16,0.1,1711
-0.145,0.125,1712
-0.16,0.12,1713
-0.175,0.125,1714
-0.175,0.105,1715
-0.18,0.1,1716
-0.15,0.115,1717
-0.155,0.125,1718
-0.15,0.12,1719
-0.16,0.12,1720
-0.17,0.095,1721
-0.165,0.105,1722
-0.145,0.105,1723
-0.135,0.12,1724
-0.15,0.135,1725
-0.16,0.12,1726
-0.165,0.1,1727
-0.145,0.1,1728
-0.135,0.11,1729
-0.12,0.12,1730
-0.125,0.11,1731
-0.13,0.1,1732
-0.15,0.085,1733
-0.135,0.09,1734
-0.115,0.1,1735
-0.11,0.115,1736
-0.115,0.12,1737
-0.14,0.09,1738
-0.15,0.08,1739
-0.13,0.075,1740
-0.12,0.07,1741
-0.12,0.095,1742
-0.115,0.1,1743
-0.14,0.1,1744
-0.15,0.08,1745
-0.135,0.075,1746
-0.115,0.07,1747
-0.105,0.09,1748
-0.105,0.09,1749
-0.135,0.075,1750
-0.125,0.075,1751
-0.13,0.065,1752
-0.12,0.065,1753
-0.095,0.085,1754
-0.105,0.09,1755
-0.12,0.075,1756
-0.13,0.06,1757
-0.12,0.05,1758
-0.105,0.06,1759
-0.09,0.075,1760
-0.105,0.08,1761
-0.115,0.07,1762
-0.115,0.065,1763
-0.11,0.04,1764
-0.1,0.065,1765
-0.09,0.075,1766
-0.105,0.07,1767
-0.11,0.06,1768
-0.125,0.065,1769
-0.115,0.055,1770
-0.095,0.07,1771
-0.085,0.07,1772
-0.085,0.07,1773
-0.095,0.07,1774
-0.12,0.045,1775
-0.11,0.045,1776
-0.1,0.045,1777
-0.085,0.06,1778
-0.08,0.065,1779
-0.105,0.065,1780
-0.105,0.055,1781
-0.115,0.055,1782
-0.095,0.06,1783
-0.085,0.065,1784
-0.09,0.06,1785
-0.11,0.07,1786
-0.115,0.05,1787
-0.105,0.05,1788
-0.085,0.06,1789
-0.085,0.06,1790
-0.09,0.065,1791
-0.115,0.06,1792
-0.12,0.05,1793
-0.105,0.04,1794
-0.09,0.045,1795
-0.075,0.065,1796
-0.075,0.075,1797
-0.075,0.07,1798
-0.075,0.06,1799
-0.065,0.07,1800
-0.03,0.095,1801
-0.03,0.105,1802
-0.015,0.12,1803
-0.02,0.11,1804
-0.025,0.11,1805
-0.005,0.095,1806
0.03,0.1,1807
0.065,0.095,1808
0.08,0.095,1809
0.065,0.065,1810
0.055,0.035,1811
0.065,0.01,1812
0.08,0.0,1813
0.08,0.015,1814
0.055,0.025,1815
0.025,0.015,1816
0.0,0.0,1817
0.0,-0.005,1818
0.005,0.0,1819
-0.005,0.015,1820
-0.02,0.015,1821
-0.055,-0.005,1822
-0.07,-0.01,1823
-0.075,-0.005,1824
-0.07,0.015,1825
-0.075,0.035,1826
-0.09,0.035,1827
-0.11,0.02,1828
-0.12,0.015,1829
-0.12,0.005,1830
-0.12,0.025,1831
-0.11,0.03,1832
-0.12,0.035,1833
-0.125,0.02,1834
-0.12,0.015,1835
-0.11,0.0,1836
-0.11,0.01,1837
-0.105,0.03,1838
-0.115,0.025,1839
-0.12,0.015,1840
-0.115,0.015,1841
-0.1,-0.005,1842
-0.085,0.005,1843
-0.085,0.02,1844
-0.105,0.015,1845
-0.105,0.015,1846
-0.1,-0.005,1847
-0.09,-0.03,1848
-0.1,-0.03,1849
-0.095,-0.015,1850
-0.06,-0.01,1851
-0.005,-0.01,1852
0.11,-0.045,1853
0.285,-0.115,1854
0.49,-0.175,1855
0.725,-0.2,1856
0.97,-0.195,1857
1.21,-0.205,1858
1.43,-0.245,1859
1.63,-0.27,1860
1.71,-0.235,1861
1.57,-0.15,1862
1.235,-0.09,1863
0.84,-0.07,1864
0.495,-0.075,1865
0.23,-0.07,1866
0.09,-0.08,1867
0.015,-0.085,1868
-0.055,-0.085,1869
-0.12,-0.055,1870
-0.16,-0.035,1871
-0.14,-0.01,1872
-0.1,0.0,1873
-0.09,0.04,1874
-0.11,0.04,1875
-0.135,0.035,1876
-0.15,0.03,1877
-0.145,0.035,1878
-0.14,0.035,1879
-0.135,0.055,1880
-0.155,0.05,1881
-0.18,0.04,1882
-0.165,0.05,1883
-0.16,0.035,1884
-0.155,0.055,1885
-0.145,0.06,1886
-0.155,0.07,1887
-0.18,0.07,1888
-0.175,0.05,1889
-0.155,0.045,1890
-0.15,0.035,1891
-0.145,0.06,1892
-0.145,0.06,1893
-0.17,0.055,1894
-0.155,0.055,1895
-0.14,0.04,1896
-0.135,0.05,1897
-0.115,0.045,1898
-0.125,0.055,1899
-0.135,0.055,1900
-0.13,0.035,1901
-0.125,0.02,1902
-0.105,0.025,1903
-0.09,0.04,1904
-0.09,0.03,1905
-0.09,0.03,1906
-0.095,0.01,1907
-0.09,0.01,1908
-0.07,0.005,1909
-0.03,0.005,1910
-0.05,0.01,1911
-0.04,-0.005,1912
-0.045,-0.015,1913
-0.03,-0.025,1914
0.0,-0.025,1915
0.02,-0.025,1916
0.02,-0.035,1917
0.015,-0.055,1918
0.01,-0.065,1919
0.035,-0.085,1920
0.08,-0.085,1921
0.11,-0.09,1922
0.115,-0.09,1923
0.105,-0.12,1924
0.09,-0.15,1925
0.115,-0.165,1926
0.165,-0.16,1927
0.18,-0.16,1928
0.2,-0.165,1929
0.205,-0.19,1930
0.195,-0.21,1931
0.205,-0.23,1932
0.245,-0.23,1933
0.27,-0.22,1934
0.285,-0.22,1935
0.29,-0.25,1936
0.29,-0.255,1937
0.31,-0.255,1938
0.325,-0.25,1939
0.34,-0.245,1940
0.335,-0.235,1941
0.315,-0.23,1942
0.33,-0.25,1943
0.325,-0.25,1944
0.345,-0.22,1945
0.345,-0.19,1946
0.32,-0.17,1947
0.265,-0.155,1948
0.25,-0.14,1949
0.235,-0.125,1950
0.235,-0.095,1951
0.21,-0.065,1952
0.18,-0.045,1953
0.155,-0.04,1954
0.12,-0.03,1955
0.11,-0.005,1956
0.105,0.01,1957
0.08,0.035,1958
0.04,0.05,1959
0.005,0.055,1960
-0.01,0.05,1961
-0.015,0.06,1962
-0.01,0.075,1963
-0.02,0.09,1964
-0.035,0.105,1965
-0.06,0.085,1966
-0.09,0.075,1967
-0.075,0.08,1968
-0.055,0.09,1969
-0.045,0.11,1970
-0.065,0.105,1971
-0.085,0.095,1972
-0.095,0.085,1973
-0.08,0.085,1974
-0.07,0.08,1975
-0.07,0.1,1976
-0.07,0.11,1977
-0.09,0.1,1978
-0.095,0.1,1979
-0.095,0.1,1980
-0.085,0.105,1981
-0.075,0.12,1982
-0.08,0.11,1983
-0.09,0.11,1984
-0.095,0.1,1985
-0.09,0.09,1986
-0.085,0.095,1987
-0.07,0.1,1988
-0.095,0.1,1989
-0.095,0.09,1990
-0.095,0.09,1991
-0.075,0.075,1992
-0.07,0.08,1993
-0.055,0.08,1994
-0.065,0.11,1995
-0.075,0.085,1996
-0.08,0.065,1997
-0.065,0.065,1998
-0.045,0.075,1999
-0.05,0.085,2000
-0.06,0.08,2001
-0.07,0.075,2002
-0.07,0.06,2003
-0.075,0.07,2004
-0.065,0.07,2005
-0.055,0.09,2006
-0.065,0.105,2007
-0.075,0.085,2008
-0.07,0.08,2009
-0.065,0.07,2010
-0.055,0.08,2011
-0.09,0.095,2012
-0.07,0.1,2013
-0.06,0.105,2014
-0.055,0.1,2015
-0.03,0.1,2016
-0.01,0.115,2017
0.005,0.125,2018
0.0,0.135,2019
0.0,0.125,2020
0.015,0.115,2021
0.03,0.105,2022
0.07,0.11,2023
0.09,0.115,2024
0.095,0.105,2025
0.08,0.095,2026
0.08,0.065,2027
0.075,0.035,2028
0.08,0.05,2029
0.075,0.08,2030
0.07,0.08,2031
0.05,0.075,2032
0.045,0.06,2033
0.05,0.05,2034
0.06,0.045,2035
0.07,0.04,2036
0.08,0.02,2037
0.09,-0.025,2038
0.105,-0.075,2039
0.155,-0.1,2040
0.205,-0.125,2041
0.26,-0.15,2042
0.31,-0.21,2043
0.35,-0.295,2044
0.41,-0.395,2045
0.49,-0.51,2046
0.58,-0.61,2047
0.645,-0.69,2048
0.71,-0.765,2049
0.755,-0.825,2050
0.815,-0.905,2051
0.88,-0.98,2052
0.965,-1.045,2053
1.055,-1.1,2054
1.125,-1.14,2055
1.175,-1.165,2056
1.24,-1.195,2057
1.35,-1.255,2058
1.465,-1.275,2059
1.545,-1.275,2060
1.57,-1.255,2061
1.53,-1.225,2062
1.48,-1.175,2063
1.43,-1.11,2064
1.385,-1.025,2065
1.35,-0.925,2066
1.325,-0.815,2067
1.315,-0.73,2068
1.33,-0.665,2069
1.34,-0.625,2070
1.37,-0.585,2071
1.37,-0.55,2072
1.365,-0.51,2073
1.37,-0.47,2074
1.375,-0.415,2075
1.385,-0.365,2076
1.38,-0.31,2077
1.315,-0.27,2078
1.2,-0.235,2079
1.02,-0.2,2080
0.795,-0.14,2081
0.56,-0.055,2082
0.315,0.04,2083
0.09,0.125,2084
-0.09,0.17,2085
-0.235,0.21,2086
-0.335,0.23,2087
-0.38,0.25,2088
-0.4,0.27,2089
-0.415,0.3,2090
-0.455,0.315,2091
-0.485,0.32,2092
-0.51,0.33,2093
-0.52,0.32,2094
-0.52,0.335,2095
-0.52,0.36,2096
-0.535,0.37,2097
-0.57,0.37,2098
-0.585,0.355,2099
-0.58,0.36,2100
-0.57,0.395,2101
-0.565,0.405,2102
-0.595,0.415,2103
-0.61,0.42,2104
-0.625,0.435,2105
-0.615,0.425,2106
-0.62,0.46,2107
-0.63,0.47,2108
-0.65,0.48,2109
-0.675,0.48,2110
-0.685,0.485,2111
-0.67,0.495,2112
-0.665,0.515,2113
-0.68,0.54,2114
-0.72,0.555,2115
-0.75,0.545,2116
-0.75,0.555,2117
-0.745,0.57,2118
-0.735,0.585,2119
-0.74,0.615,2120
-0.765,0.63,2121
-0.78,0.64,2122
-0.795,0.63,2123
-0.8,0.64,2124
-0.785,0.665,2125
-0.795,0.68,2126
-0.805,0.685,2127
-0.84,0.685,2128
-0.865,0.685,2129
-0.86,0.685,2130
-0.84,0.695,2131
-0.83,0.715,2132
-0.845,0.72,2133
-0.865,0.715,2134
-0.88,0.685,2135
-0.86,0.675,2136
-0.85,0.68,2137
-0.835,0.685,2138
-0.84,0.67,2139
-0.855,0.66,2140
-0.855,0.625,2141
-0.84,0.61,2142
-0.825,0.595,2143
-0.795,0.595,2144
-0.8,0.575,2145
-0.795,0.545,2146
-0.78,0.505,2147
-0.755,0.47,2148
-0.725,0.46,2149
-0.7,0.445,2150
-0.675,0.415,2151
-0.66,0.385,2152
-0.64,0.335,2153
-0.595,0.3,2154
-0.535,0.29,2155
-0.495,0.29,2156
-0.485,0.26,2157
-0.47,0.235,2158
-0.465,0.205,2159
-0.405,0.17,2160
-0.36,0.17,2161
-0.31,0.17,2162
-0.3,0.155,2163
-0.3,0.135,2164
-0.275,0.125,2165
-0.245,0.115,2166
-0.205,0.115,2167
-0.195,0.115,2168
-0.205,0.12,2169
-0.215,0.125,2170
-0.22,0.1,2171
-0.21,0.09,2172
-0.185,0.095,2173
-0.175,0.12,2174
-0.185,0.115,2175
-0.19,0.105,2176
-0.21,0.1,2177
-0.215,0.09,2178
-0.185,0.09,2179
-0.18,0.105,2180
-0.175,0.115,2181
-0.205,0.105,2182
-0.2,0.08,2183
-0.195,0.075,2184
-0.175,0.085,2185
-0.175,0.1,2186
-0.175,0.11,2187
-0.2,0.1,2188
-0.205,0.085,2189
-0.2,0.085,2190
-0.19,0.095,2191
-0.175,0.11,2192
-0.195,0.12,2193
-0.205,0.1,2194
-0.205,0.105,2195
-0.2,0.09,2196
-0.18,0.105,2197
-0.165,0.125,2198
-0.165,0.115,2199
-0.18,0.115,2200
-0.195,0.105,2201
-0.18,0.08,2202
-0.17,0.095,2203
-0.145,0.11,2204
-0.165,0.105,2205
-0.17,0.1,2206
-0.195,0.09,2207
-0.19,0.065,2208
-0.16,0.1,2209
-0.14,0.105,2210
-0.145,0.095,2211
-0.175,0.095,2212
-0.17,0.09,2213
-0.155,0.095,2214
-0.14,0.11,2215
-0.13,0.115,2216
-0.13,0.115,2217
-0.14,0.12,2218
-0.125,0.08,2219
-0.08,0.055,2220
-0.06,0.06,2221
-0.01,0.05,2222
0.005,0.025,2223
0.02,-0.01,2224
0.05,-0.05,2225
0.095,-0.105,2226
0.16,-0.145,2227
0.225,-0.2,2228
0.295,-0.27,2229
0.37,-0.375,2230
0.445,-0.465,2231
0.52,-0.565,2232
0.62,-0.625,2233
0.705,-0.685,2234
0.77,-0.755,2235
0.835,-0.835,2236
0.93,-0.93,2237
1.01,-0.99,2238
1.095,-1.02,2239
1.155,-1.035,2240
1.205,-1.05,2241
1.27,-1.065,2242
1.355,-1.095,2243
1.445,-1.09,2244
1.49,-1.045,2245
1.49,-0.98,2246
1.41,-0.915,2247
1.35,-0.85,2248
1.29,-0.8,2249
1.26,-0.715,2250
1.235,-0.61,2251
1.195,-0.475,2252
1.155,-0.385,2253
1.115,-0.305,2254
1.075,-0.255,2255
1.06,-0.21,2256
1.075,-0.19,2257
1.085,-0.16,2258
1.1,-0.14,2259
1.115,-0.13,2260
1.15,-0.14,2261
1.17,-0.155,2262
1.12,-0.185,2263
1.04,-0.18,2264
0.915,-0.16,2265
0.745,-0.15,2266
0.555,-0.115,2267
0.355,-0.075,2268
0.175,0.02,2269
0.005,0.09,2270
-0.105,0.13,2271
-0.21,0.15,2272
-0.265,0.165,2273
-0.31,0.17,2274
-0.335,0.2,2275
-0.385,0.225,2276
-0.43,0.245,2277
-0.465,0.26,2278
-0.49,0.265,2279
-0.5,0.28,2280
-0.505,0.285,2281
-0.52,0.31,2282
-0.545,0.315,2283
-0.58,0.31,2284
-0.585,0.31,2285
-0.59,0.32,2286
-0.595,0.33,2287
-0.6,0.35,2288
-0.62,0.365,2289
-0.655,0.375,2290
-0.645,0.355,2291
-0.65,0.36,2292
-0.64,0.375,2293
-0.65,0.395,2294
-0.675,0.4,2295
-0.705,0.41,2296
-0.73,0.41,2297
-0.73,0.41,2298
-0.72,0.43,2299
-0.725,0.455,2300
-0.755,0.46,2301
-0.78,0.46,2302
-0.8,0.465,2303
-0.795,0.48,2304
-0.785,0.49,2305
-0.79,0.51,2306
-0.82,0.52,2307
-0.835,0.515,2308
-0.855,0.505,2309
-0.86,0.5,2310
-0.855,0.515,2311
-0.865,0.525,2312
-0.89,0.53,2313
-0.895,0.525,2314
-0.9,0.515,2315
-0.89,0.505,2316
-0.87,0.505,2317
-0.875,0.525,2318
-0.88,0.51,2319
-0.88,0.505,2320
-0.885,0.49,2321
-0.87,0.47,2322
-0.84,0.465,2323
-0.83,0.47,2324
-0.825,0.45,2325
-0.825,0.415,2326
-0.8,0.4,2327
-0.765,0.375,2328
-0.745,0.355,2329
-0.705,0.355,2330
-0.695,0.33,2331
-0.69,0.31,2332
-0.645,0.28,2333
-0.62,0.255,2334
-0.58,0.24,2335
-0.55,0.225,2336
-0.535,0.215,2337
-0.515,0.185,2338
-0.475,0.17,2339
-0.44,0.135,2340
-0.4,0.135,2341
-0.375,0.135,2342
-0.355,0.13,2343
-0.37,0.115,2344
-0.345,0.08,2345
-0.305,0.07,2346
-0.275,0.08,2347
-0.25,0.08,2348
-0.255,0.075,2349
-0.245,0.075,2350
-0.25,0.05,2351
-0.25,0.055,2352
-0.225,0.06,2353
-0.23,0.07,2354
-0.245,0.06,2355
-0.24,0.06,2356
-0.245,0.045,2357
-0.225,0.05,2358
-0.205,0.05,2359
-0.22,0.07,2360
-0.225,0.065,2361
-0.225,0.055,2362
-0.235,0.05,2363
-0.235,0.045,2364
-0.21,0.06,2365
-0.21,0.075,2366
-0.23,0.08,2367
-0.23,0.06,2368
-0.24,0.06,2369
-0.22,0.045,2370
-0.21,0.055,2371
-0.22,0.07,2372
-0.215,0.08,2373
-0.23,0.065,2374
-0.22,0.055,2375
-0.21,0.045,2376
-0.185,0.06,2377
-0.19,0.07,2378
-0.21,0.065,2379
-0.21,0.045,2380
-0.215,0.035,2381
-0.19,0.03,2382
-0.17,0.03,2383
-0.16,0.055,2384
-0.175,0.055,2385
-0.185,0.04,2386
-0.21,0.025,2387
-0.18,0.02,2388
-0.16,0.035,2389
-0.16,0.045,2390
-0.17,0.045,2391
-0.18,0.04,2392
-0.185,0.015,2393
-0.16,0.02,2394
-0.145,0.025,2395
-0.145,0.045,2396
-0.15,0.03,2397
-0.17,0.035,2398
-0.165,0.025,2399
-0.145,0.02,2400
-0.125,0.01,2401
-0.13,0.03,2402
-0.13,0.025,2403
-0.16,0.015,2404
-0.145,0.005,2405
-0.14,0.01,2406
-0.125,0.005,2407
-0.13,0.02,2408
-0.14,0.025,2409
-0.155,0.02,2410
-0.155,0.0,2411
-0.155,-0.01,2412
-0.13,-0.005,2413
-0.13,0.01,2414
-0.135,0.025,2415
-0.145,0.005,2416
-0.15,-0.005,2417
-0.125,-0.005,2418
-0.11,0.0,2419
-0.125,0.005,2420
-0.15,0.005,2421
-0.14,0.0,2422
-0.145,-0.01,2423
-0.13,-0.015,2424
-0.125,-0.005,2425
-0.115,0.01,2426
-0.12,0.01,2427
-0.135,0.01,2428
-0.155,-0.005,2429
-0.15,-0.015,2430
-0.13,-0.015,2431
-0.13,0.0,2432
-0.14,0.01,2433
-0.155,0.0,2434
-0.145,-0.01,2435
-0.135,-0.005,2436
-0.125,-0.01,2437
-0.115,0.0,2438
-0.135,0.005,2439
-0.145,0.0,2440
-0.155,-0.02,2441
-0.13,-0.01,2442
-0.11,-0.005,2443
-0.12,0.015,2444
-0.125,0.0,2445
-0.145,-0.015,2446
-0.14,-0.015,2447
-0.135,-0.03,2448
-0.11,-0.01,2449
-0.12,-0.005,2450
-0.135,0.0,2451
-0.155,-0.03,2452
-0.145,-0.025,2453
-0.14,-0.025,2454
-0.13,-0.025,2455
-0.125,0.005,2456
-0.13,-0.005,2457
-0.14,-0.005,2458
-0.135,-0.03,2459
-0.125,-0.04,2460
-0.105,-0.02,2461
-0.105,-0.01,2462
-0.12,-0.005,2463
-0.12,-0.02,2464
-0.125,-0.035,2465
-0.11,-0.04,2466
-0.105,-0.02,2467
-0.1,-0.01,2468
-0.12,-0.015,2469
-0.145,-0.005,2470
-0.14,-0.03,2471
-0.12,-0.04,2472
-0.095,-0.02,2473
-0.09,-0.015,2474
-0.115,-0.005,2475
-0.135,-0.015,2476
-0.13,-0.035,2477
-0.12,-0.035,2478
-0.115,-0.03,2479
-0.105,-0.015,2480
-0.12,-0.02,2481
-0.125,-0.02,2482
-0.125,-0.04,2483
-0.11,-0.035,2484
-0.09,-0.035,2485
-0.11,-0.025,2486
-0.12,-0.02,2487
-0.12,-0.025,2488
-0.11,-0.035,2489
-0.12,-0.035,2490
-0.11,-0.04,2491
-0.11,-0.005,2492
-0.115,-0.015,2493
-0.135,-0.025,2494
-0.125,-0.035,2495
-0.11,-0.04,2496
-0.095,-0.025,2497
-0.085,-0.005,2498
-0.09,-0.01,2499
-0.12,-0.01,2500
-0.095,-0.03,2501
-0.075,-0.015,2502
-0.065,-0.005,2503
-0.05,0.015,2504
-0.06,0.015,2505
-0.06,0.01,2506
-0.045,0.01,2507
-0.01,0.015,2508
0.015,0.025,2509
0.025,0.03,2510
0.02,0.005,2511
0.025,-0.005,2512
0.045,-0.02,2513
0.06,-0.045,2514
0.075,-0.05,2515
0.07,-0.05,2516
0.06,-0.055,2517
0.03,-0.065,2518
0.01,-0.085,2519
0.035,-0.07,2520
0.025,-0.065,2521
0.015,-0.065,2522
-0.02,-0.06,2523
-0.05,-0.065,2524
-0.065,-0.075,2525
-0.075,-0.06,2526
-0.065,-0.055,2527
-0.09,-0.03,2528
-0.115,-0.035,2529
-0.12,-0.045,2530
-0.135,-0.055,2531
-0.13,-0.06,2532
-0.12,-0.06,2533
-0.13,-0.04,2534
-0.135,-0.04,2535
-0.15,-0.045,2536
-0.14,-0.06,2537
-0.12,-0.06,2538
-0.105,-0.055,2539
-0.11,-0.04,2540
-0.12,-0.055,2541
-0.13,-0.05,2542
-0.135,-0.065,2543
-0.115,-0.07,2544
-0.105,-0.055,2545
-0.12,-0.07,2546
-0.15,-0.07,2547
-0.185,-0.095,2548
-0.18,-0.085,2549
-0.12,-0.095,2550
0.005,-0.125,2551
0.145,-0.18,2552
0.315,-0.255,2553
0.545,-0.29,2554
0.825,-0.285,2555
1.125,-0.295,2556
1.39,-0.29,2557
1.595,-0.255,2558
1.625,-0.22,2559
1.445,-0.16,2560
1.08,-0.13,2561
0.655,-0.085,2562
0.225,-0.08,2563
-0.085,-0.105,2564
-0.185,-0.135,2565
-0.18,-0.17,2566
-0.16,-0.165,2567
-0.145,-0.15,2568
-0.145,-0.105,2569
-0.145,-0.065,2570
-0.13,-0.05,2571
-0.15,-0.04,2572
-0.17,-0.055,2573
-0.175,-0.055,2574
-0.17,-0.045,2575
-0.16,-0.025,2576
-0.16,-0.03,2577
-0.18,-0.04,2578
-0.185,-0.04,2579
-0.18,-0.035,2580
-0.165,-0.04,2581
-0.14,-0.035,2582
-0.155,-0.035,2583
-0.17,-0.04,2584
-0.18,-0.045,2585
-0.17,-0.06,2586
-0.16,-0.04,2587
-0.15,-0.04,2588
-0.155,-0.045,2589
-0.165,-0.045,2590
-0.17,-0.055,2591
-0.165,-0.06,2592
-0.15,-0.06,2593
-0.14,-0.03,2594
-0.15,-0.045,2595
-0.165,-0.05,2596
-0.16,-0.07,2597
-0.155,-0.07,2598
-0.14,-0.065,2599
-0.115,-0.06,2600
-0.125,-0.05,2601
-0.13,-0.065,2602
-0.135,-0.075,2603
-0.13,-0.09,2604
-0.095,-0.095,2605
-0.095,-0.07,2606
-0.105,-0.085,2607
-0.1,-0.1,2608
-0.09,-0.11,2609
-0.075,-0.115,2610
-0.045,-0.11,2611
-0.035,-0.115,2612
-0.05,-0.105,2613
-0.04,-0.12,2614
-0.04,-0.135,2615
-0.02,-0.16,2616
0.01,-0.15,2617
0.01,-0.155,2618
0.025,-0.17,2619
0.02,-0.18,2620
0.045,-0.205,2621
0.055,-0.22,2622
0.085,-0.205,2623
0.1,-0.215,2624
0.1,-0.23,2625
0.095,-0.245,2626
0.105,-0.26,2627
0.14,-0.275,2628
0.16,-0.265,2629
0.17,-0.27,2630
0.17,-0.265,2631
0.16,-0.285,2632
0.16,-0.3,2633
0.17,-0.315,2634
0.215,-0.305,2635
0.235,-0.295,2636
0.225,-0.29,2637
0.23,-0.295,2638
0.23,-0.31,2639
0.245,-0.305,2640
0.255,-0.295,2641
0.265,-0.275,2642
0.255,-0.265,2643
0.25,-0.275,2644
0.23,-0.26,2645
0.225,-0.245,2646
0.215,-0.23,2647
0.215,-0.195,2648
0.195,-0.17,2649
0.155,-0.16,2650
0.125,-0.155,2651
0.12,-0.14,2652
0.1,-0.11,2653
0.095,-0.085,2654
0.075,-0.065,2655
0.05,-0.055,2656
0.02,-0.06,2657
0.0,-0.065,2658
-0.01,-0.035,2659
-0.015,-0.005,2660
-0.03,0.0,2661
-0.075,0.02,2662
-0.095,0.0,2663
-0.11,0.005,2664
-0.09,0.01,2665
-0.085,0.035,2666
-0.115,0.035,2667
-0.12,0.04,2668
-0.125,0.035,2669
-0.14,0.025,2670
-0.12,0.04,2671
-0.135,0.05,2672
-0.15,0.055,2673
-0.155,0.045,2674
-0.165,0.035,2675
-0.14,0.025,2676
-0.13,0.04,2677
-0.12,0.045,2678
-0.125,0.055,2679
-0.145,0.045,2680
-0.155,0.025,2681
-0.145,0.03,2682
-0.125,0.035,2683
-0.13,0.045,2684
-0.12,0.05,2685
-0.13,0.04,2686
-0.135,0.025,2687
-0.135,0.01,2688
-0.125,0.025,2689
-0.11,0.035,2690
-0.135,0.03,2691
-0.145,0.03,2692
-0.145,0.0,2693
-0.15,0.0,2694
-0.125,0.0,2695
-0.12,0.03,2696
-0.115,0.03,2697
-0.13,0.01,2698
-0.145,-0.005,2699
-0.14,0.005,2700
-0.12,0.02,2701
-0.11,0.035,2702
-0.11,0.035,2703
-0.125,0.025,2704
-0.105,0.035,2705
-0.09,0.02,2706
-0.06,0.045,2707
-0.04,0.05,2708
-0.04,0.05,2709
-0.04,0.045,2710
-0.035,0.04,2711
0.0,0.03,2712
0.04,0.02,2713
0.055,0.045,2714
0.04,0.04,2715
0.02,0.035,2716
0.005,0.02,2717
0.01,0.0,2718
0.025,0.0,2719
0.035,0.01,2720
0.03,0.02,2721
0.0,0.015,2722
0.005,0.0,2723
0.045,-0.045,2724
0.075,-0.07,2725
0.11,-0.08,2726
0.11,-0.115,2727
0.13,-0.16,2728
0.165,-0.195,2729
0.24,-0.26,2730
0.33,-0.365,2731
0.41,-0.455,2732
0.46,-0.555,2733
0.525,-0.655,2734
0.585,-0.725,2735
0.66,-0.81,2736
0.765,-0.845,2737
0.835,-0.865,2738
0.905,-0.95,2739
0.965,-1.005,2740
1.04,-1.035,2741
1.115,-1.07,2742
1.19,-1.09,2743
1.27,-1.115,2744
1.36,-1.15,2745
1.45,-1.18,2746
1.505,-1.16,2747
1.52,-1.12,2748
1.495,-1.05,2749
1.43,-0.96,2750
1.345,-0.9,2751
1.285,-0.83,2752
1.24,-0.76,2753
1.19,-0.655,2754
1.15,-0.555,2755
1.12,-0.46,2756
1.06,-0.41,2757
1.0,-0.39,2758
0.985,-0.39,2759
0.995,-0.365,2760
0.99,-0.34,2761
0.99,-0.3,2762
0.965,-0.28,2763
0.945,-0.28,2764
0.905,-0.29,2765
0.85,-0.28,2766
0.745,-0.25,2767
0.62,-0.19,2768
0.44,-0.12,2769
0.2,-0.05,2770
-0.01,0.035,2771
-0.18,0.1,2772
-0.31,0.165,2773
-0.395,0.215,2774
-0.46,0.24,2775
-0.505,0.245,2776
-0.525,0.245,2777
-0.555,0.265,2778
-0.54,0.28,2779
-0.57,0.305,2780
-0.595,0.315,2781
-0.63,0.32,2782
-0.635,0.315,2783
-0.63,0.33,2784
-0.63,0.35,2785
-0.635,0.365,2786
-0.655,0.37,2787
-0.68,0.375,2788
-0.695,0.385,2789
-0.695,0.39,2790
-0.69,0.405,2791
-0.695,0.435,2792
-0.72,0.45,2793
-0.74,0.465,2794
-0.76,0.455,2795
-0.77,0.47,2796
-0.77,0.495,2797
-0.79,0.525,2798
-0.795,0.545,2799
-0.82,0.555,2800
-0.825,0.56,2801
-0.845,0.575,2802
-0.84,0.6,2803
-0.845,0.625,2804
-0.855,0.635,2805
-0.885,0.65,2806
-0.895,0.65,2807
-0.905,0.645,2808
-0.89,0.68,2809
-0.9,0.695,2810
-0.925,0.715,2811
-0.96,0.71,2812
-0.96,0.705,2813
-0.945,0.7,2814
-0.96,0.715,2815
-0.965,0.745,2816
-0.97,0.725,2817
-0.99,0.735,2818
-0.99,0.7,2819
-0.98,0.69,2820
-0.965,0.69,2821
-0.96,0.7,2822
-0.96,0.68,2823
-0.975,0.65,2824
-0.965,0.64,2825
-0.935,0.61,2826
-0.91,0.59,2827
-0.895,0.585,2828
-0.895,0.565,2829
-0.895,0.52,2830
-0.87,0.485,2831
-0.84,0.455,2832
-0.785,0.44,2833
-0.76,0.42,2834
-0.745,0.39,2835
-0.72,0.345,2836
-0.69,0.31,2837
-0.65,0.28,2838
-0.605,0.26,2839
-0.58,0.245,2840
-0.54,0.235,2841
-0.535,0.205,2842
-0.505,0.17,2843
-0.46,0.155,2844
-0.42,0.15,2845
-0.405,0.17,2846
-0.4,0.145,2847
-0.38,0.135,2848
-0.375,0.11,2849
-0.33,0.105,2850
-0.325,0.105,2851
-0.305,0.125,2852
-0.305,0.125,2853
-0.325,0.115,2854
-0.32,0.095,2855
-0.305,0.08,2856
-0.285,0.1,2857
-0.28,0.11,2858
-0.305,0.105,2859
-0.315,0.1,2860
-0.325,0.09,2861
-0.315,0.085,2862
-0.285,0.095,2863
-0.285,0.1,2864
-0.295,0.11,2865
-0.315,0.11,2866
-0.315,0.085,2867
-0.315,0.095,2868
-0.29,0.1,2869
-0.29,0.105,2870
-0.295,0.11,2871
-0.305,0.115,2872
-0.315,0.095,2873
-0.305,0.095,2874
-0.3,0.115,2875
-0.295,0.115,2876
-0.3,0.12,2877
-0.31,0.12,2878
-0.32,0.105,2879
-0.31,0.09,2880
-0.295,0.1,2881
-0.28,0.12,2882
-0.28,0.12,2883
-0.3,0.1,2884
-0.305,0.095,2885
-0.31,0.09,2886
-0.28,0.105,2887
-0.265,0.115,2888
-0.26,0.1,2889
-0.27,0.095,2890
-0.28,0.075,2891
-0.27,0.085,2892
-0.24,0.09,2893
-0.24,0.095,2894
-0.24,0.095,2895
-0.24,0.095,2896
-0.25,0.085,2897
-0.235,0.08,2898
-0.225,0.09,2899
-0.215,0.1,2900
-0.22,0.105,2901
-0.245,0.1,2902
-0.25,0.095,2903
-0.225,0.105,2904
-0.2,0.095,2905
-0.175,0.11,2906
-0.17,0.09,2907
-0.15,0.075,2908
-0.125,0.035,2909
-0.07,0.01,2910
-0.02,-0.01,2911
0.01,-0.025,2912
0.055,-0.07,2913
0.095,-0.15,2914
0.135,-0.225,2915
0.245,-0.32,2916
0.355,-0.435,2917
0.45,-0.515,2918
0.515,-0.595,2919
0.595,-0.665,2920
0.665,-0.735,2921
0.765,-0.785,2922
0.86,-0.845,2923
0.95,-0.9,2924
1.06,-0.97,2925
1.145,-1.0,2926
1.23,-1.02,2927
1.355,-1.055,2928
1.49,-1.07,2929
1.56,-1.05,2930
1.59,-1.025,2931
1.535,-1.01,2932
1.455,-0.965,2933
1.39,-0.91,2934
1.33,-0.81,2935
1.28,-0.7,2936
1.245,-0.585,2937
1.195,-0.49,2938
1.16,-0.405,2939
1.125,-0.36,2940
1.095,-0.32,2941
1.055,-0.275,2942
1.03,-0.265,2943
0.985,-0.225,2944
0.975,-0.215,2945
1.0,-0.19,2946
1.025,-0.17,2947
0.985,-0.16,2948
0.9,-0.15,2949
0.77,-0.165,2950
0.62,-0.145,2951
0.455,-0.095,2952
0.255,-0.03,2953
0.05,0.055,2954
-0.135,0.135,2955
-0.32,0.185,2956
-0.41,0.2,2957
-0.46,0.235,2958
-0.47,0.265,2959
-0.49,0.28,2960
-0.525,0.295,2961
-0.565,0.3,2962
-0.6,0.295,2963
-0.615,0.3,2964
-0.61,0.33,2965
-0.625,0.335,2966
-0.655,0.365,2967
-0.685,0.37,2968
-0.69,0.36,2969
-0.685,0.36,2970
-0.68,0.385,2971
-0.685,0.405,2972
-0.72,0.415,2973
-0.745,0.415,2974
-0.755,0.415,2975
-0.745,0.44,2976
-0.74,0.465,2977
-0.76,0.48,2978
-0.785,0.495,2979
-0.815,0.505,2980
-0.835,0.505,2981
-0.84,0.5,2982
-0.83,0.535,2983
-0.845,0.57,2984
-0.875,0.575,2985
-0.9,0.59,2986
-0.92,0.595,2987
-0.915,0.6,2988
-0.915,0.625,2989
-0.925,0.65,2990
-0.95,0.655,2991
-0.97,0.665,2992
-0.99,0.65,2993
-0.99,0.66,2994
-0.985,0.67,2995
-0.975,0.68,2996
-0.99,0.68,2997
-1.02,0.665,2998
-1.015,0.64,2999
-0.985,0.625,3000
-0.945,0.61,3001
-0.925,0.605,3002
-0.935,0.59,3003
-0.925,0.55,3004
-0.905,0.505,3005
-0.845,0.475,3006
-0.805,0.445,3007
-0.76,0.415,3008
-0.72,0.4,3009
-0.715,0.36,3010
-0.67,0.32,3011
-0.62,0.285,3012
-0.565,0.275,3013
-0.525,0.25,3014
-0.495,0.24,3015
-0.47,0.21,3016
-0.44,0.175,3017
-0.395,0.16,3018
-0.35,0.15,3019
-0.335,0.15,3020
-0.315,0.145,3021
-0.31,0.14,3022
-0.295,0.11,3023
-0.275,0.105,3024
-0.26,0.105,3025
-0.245,0.12,3026
-0.26,0.12,3027
-0.27,0.12,3028
-0.29,0.085,3029
-0.26,0.085,3030
-0.23,0.095,3031
-0.225,0.115,3032
-0.24,0.105,3033
-0.255,0.095,3034
-0.26,0.09,3035
-0.255,0.1,3036
-0.235,0.095,3037
-0.225,0.11,3038
-0.235,0.11,3039
-0.26,0.095,3040
-0.26,0.1,3041
-0.25,0.095,3042
-0.23,0.1,3043
-0.26,0.12,3044
-0.25,0.125,3045
-0.265,0.11,3046
-0.255,0.095,3047
-0.25,0.095,3048
-0.22,0.095,3049
-0.225,0.12,3050
-0.23,0.115,3051
-0.245,0.095,3052
-0.24,0.075,3053
-0.215,0.075,3054
-0.195,0.09,3055
-0.195,0.1,3056
-0.21,0.095,3057
-0.235,0.08,3058
-0.225,0.06,3059
-0.205,0.07,3060
-0.18,0.08,3061
-0.185,0.09,3062
-0.195,0.095,3063
-0.21,0.085,3064
-0.205,0.065,3065
-0.18,0.065,3066
-0.16,0.07,3067
-0.165,0.085,3068
-0.18,0.085,3069
-0.19,0.08,3070
-0.19,0.065,3071
-0.17,0.055,3072
-0.16,0.075,3073
-0.155,0.09,3074
-0.17,0.085,3075
-0.18,0.075,3076
-0.19,0.055,3077
-0.175,0.055,3078
-0.155,0.065,3079
-0.15,0.075,3080
-0.165,0.07,3081
-0.185,0.07,3082
-0.18,0.055,3083
-0.165,0.065,3084
-0.145,0.06,3085
-0.14,0.06,3086
-0.165,0.075,3087
-0.165,0.06,3088
-0.16,0.035,3089
-0.165,0.035,3090
-0.145,0.045,3091
-0.14,0.055,3092
-0.155,0.07,3093
-0.165,0.05,3094
-0.17,0.04,3095
-0.145,0.04,3096
-0.14,0.055,3097
-0.135,0.06,3098
-0.145,0.065,3099
-0.15,0.045,3100
-0.155,0.04,3101
-0.135,0.04,3102
-0.13,0.045,3103
-0.135,0.05,3104
-0.135,0.05,3105
-0.155,0.05,3106
-0.16,0.045,3107
-0.15,0.035,3108
-0.13,0.045,3109
-0.14,0.05,3110
-0.135,0.06,3111
-0.16,0.05,3112
-0.155,0.04,3113
-0.145,0.035,3114
-0.125,0.04,3115
-0.12,0.06,3116
-0.13,0.05,3117
-0.15,0.045,3118
-0.155,0.025,3119
-0.125,0.04,3120
-0.125,0.05,3121
-0.145,0.065,3122
-0.145,0.06,3123
-0.145,0.055,3124
-0.145,0.04,3125
-0.135,0.035,3126
-0.125,0.045,3127
-0.135,0.055,3128
-0.155,0.06,3129
-0.14,0.045,3130
-0.14,0.03,3131
-0.125,0.035,3132
-0.12,0.04,3133
-0.115,0.06,3134
-0.125,0.05,3135
-0.145,0.045,3136
-0.145,0.04,3137
-0.135,0.04,3138
-0.115,0.045,3139
-0.105,0.05,3140
-0.11,0.055,3141
-0.105,0.065,3142
-0.1,0.07,3143
-0.08,0.07,3144
-0.05,0.08,3145
-0.045,0.09,3146
-0.035,0.105,3147
-0.025,0.09,3148
-0.015,0.08,3149
0.02,0.065,3150
0.05,0.05,3151
0.05,0.055,3152
0.035,0.03,3153
0.03,0.005,3154
0.025,-0.01,3155
0.035,-0.025,3156
0.025,-0.01,3157
0.005,-0.01,3158
-0.02,-0.005,3159
-0.05,-0.005,3160
-0.05,-0.025,3161
-0.055,-0.045,3162
-0.055,-0.035,3163
-0.065,-0.01,3164
-0.09,0.005,3165
-0.115,0.005,3166
-0.125,-0.005,3167
-0.125,0.01,3168
-0.125,-0.005,3169
-0.125,0.02,3170
-0.14,0.02,3171
-0.165,0.0,3172
-0.145,-0.005,3173
-0.145,-0.005,3174
-0.135,-0.005,3175
-0.13,0.015,3176
-0.145,0.01,3177
-0.155,0.005,3178
-0.14,-0.005,3179
-0.125,-0.01,3180
-0.115,-0.005,3181
-0.125,0.0,3182
-0.14,0.005,3183
-0.145,-0.01,3184
-0.145,-0.015,3185
-0.12,-0.02,3186
-0.115,-0.01,3187
-0.125,-0.025,3188
-0.155,-0.025,3189
-0.165,-0.035,3190
-0.15,-0.045,3191
-0.07,-0.04,3192
0.04,-0.05,3193
0.175,-0.105,3194
0.34,-0.19,3195
0.53,-0.225,3196
0.75,-0.25,3197
0.995,-0.245,3198
1.25,-0.255,3199
1.47,-0.265,3200
1.6,-0.25,3201
1.54,-0.19,3202
1.28,-0.14,3203
0.935,-0.125,3204
0.595,-0.1,3205
0.29,-0.08,3206
0.1,-0.08,3207
0.0,-0.115,3208
-0.07,-0.135,3209
-0.115,-0.12,3210
-0.145,-0.095,3211
-0.16,-0.05,3212
-0.165,-0.025,3213
-0.135,-0.02,3214
-0.13,-0.02,3215
-0.135,-0.01,3216
-0.135,0.005,3217
-0.15,0.02,3218
-0.175,0.01,3219
-0.185,0.005,3220
-0.185,0.0,3221
-0.18,-0.005,3222
-0.165,0.015,3223
-0.17,0.03,3224
-0.205,0.025,3225
-0.2,0.02,3226
-0.195,0.005,3227
-0.175,0.01,3228
-0.18,0.015,3229
-0.165,0.02,3230
-0.18,0.025,3231
-0.19,0.02,3232
-0.195,0.0,3233
-0.17,0.0,3234
-0.15,0.005,3235
-0.155,0.025,3236
-0.165,0.015,3237
-0.18,0.005,3238
-0.185,-0.01,3239
-0.155,0.01,3240
-0.15,0.01,3241
-0.14,0.03,3242
-0.14,0.01,3243
-0.155,-0.005,3244
-0.155,-0.015,3245
-0.125,-0.015,3246
-0.1,-0.015,3247
-0.095,-0.005,3248
-0.105,0.005,3249
-0.125,-0.015,3250
-0.14,-0.035,3251
-0.11,-0.04,3252
-0.075,-0.03,3253
-0.075,-0.03,3254
-0.09,-0.035,3255
-0.1,-0.05,3256
-0.085,-0.06,3257
-0.065,-0.065,3258
-0.03,-0.055,3259
-0.01,-0.055,3260
-0.04,-0.065,3261
-0.04,-0.085,3262
-0.055,-0.105,3263
-0.015,-0.12,3264
0.025,-0.11,3265
0.045,-0.105,3266
0.035,-0.11,3267
0.015,-0.135,3268
0.025,-0.16,3269
0.055,-0.17,3270
0.11,-0.17,3271
0.115,-0.175,3272
0.12,-0.185,3273
0.11,-0.21,3274
0.125,-0.235,3275
0.155,-0.24,3276
0.19,-0.24,3277
0.205,-0.23,3278
0.21,-0.245,3279
0.205,-0.265,3280
0.21,-0.285,3281
0.235,-0.29,3282
0.255,-0.285,3283
0.27,-0.265,3284
0.27,-0.275,3285
0.265,-0.285,3286
0.26,-0.31,3287
0.275,-0.3,3288
0.31,-0.29,3289
0.32,-0.275,3290
0.315,-0.265,3291
0.295,-0.26,3292
0.275,-0.275,3293
0.275,-0.265,3294
0.29,-0.235,3295
0.29,-0.2,3296
0.24,-0.19,3297
0.205,-0.18,3298
0.17,-0.175,3299
0.17,-0.14,3300
0.175,-0.105,3301
0.155,-0.08,3302
0.14,-0.05,3303
0.08,-0.05,3304
0.06,-0.04,3305
0.05,-0.035,3306
0.055,-0.015,3307
0.02,0.005,3308
0.03,0.02,3309
-0.02,0.02,3310
-0.035,0.015,3311
-0.045,0.025,3312
-0.03,0.04,3313
-0.035,0.055,3314
-0.055,0.06,3315
-0.08,0.055,3316
-0.12,0.04,3317
-0.14,0.04,3318
-0.11,0.055,3319
-0.105,0.06,3320
-0.105,0.065,3321
-0.125,0.075,3322
-0.125,0.065,3323
-0.125,0.045,3324
-0.11,0.06,3325
-0.11,0.07,3326
-0.105,0.08,3327
-0.12,0.07,3328
-0.135,0.06,3329
-0.135,0.055,3330
-0.12,0.055,3331
-0.115,0.08,3332
-0.1,0.065,3333
-0.125,0.065,3334
-0.13,0.055,3335
-0.125,0.05,3336
-0.12,0.055,3337
-0.105,0.065,3338
-0.095,0.075,3339
-0.125,0.05,3340
-0.115,0.045,3341
-0.1,0.035,3342
-0.08,0.05,3343
-0.08,0.06,3344
-0.105,0.055,3345
-0.12,0.055,3346
-0.13,0.03,3347
-0.13,0.025,3348
-0.115,0.025,3349
-0.105,0.03,3350
-0.095,0.03,3351
-0.11,0.025,3352
-0.1,0.01,3353
-0.105,0.02,3354
-0.095,0.03,3355
-0.1,0.025,3356
-0.11,0.04,3357
-0.11,0.035,3358
-0.12,0.015,3359
-0.105,0.015,3360
-0.11,0.04,3361
-0.11,0.035,3362
-0.11,0.04,3363
-0.12,0.04,3364
-0.09,0.035,3365
-0.07,0.025,3366
-0.06,0.045,3367
-0.05,0.065,3368
-0.05,0.075,3369
-0.045,0.075,3370
-0.04,0.06,3371
-0.015,0.055,3372
0.005,0.075,3373
0.02,0.075,3374
0.025,0.07,3375
0.025,0.055,3376
0.025,0.04,3377
0.045,0.035,3378
0.065,0.03,3379
0.055,0.045,3380
0.02,0.035,3381
0.005,0.025,3382
0.01,0.02,3383
0.03,0.015,3384
0.045,0.015,3385
0.045,0.02,3386
0.035,0.025,3387
0.025,-0.025,3388
0.05,-0.06,3389
0.07,-0.085,3390
0.125,-0.11,3391
0.16,-0.125,3392
0.17,-0.17,3393
0.205,-0.225,3394
0.27,-0.295,3395
0.35,-0.405,3396
0.435,-0.51,3397
0.515,-0.605,3398
0.57,-0.685,3399
0.615,-0.775,3400
0.68,-0.83,3401
0.755,-0.885,3402
0.83,-0.925,3403
0.9,-0.965,3404
0.965,-1.035,3405
1.04,-1.085,3406
1.115,-1.125,3407
1.185,-1.135,3408
1.245,-1.145,3409
1.34,-1.17,3410
1.42,-1.195,3411
1.495,-1.215,3412
1.55,-1.22,3413
1.555,-1.165,3414
1.545,-1.115,3415
1.505,-1.045,3416
1.445,-0.99,3417
1.39,-0.94,3418
1.33,-0.865,3419
1.295,-0.775,3420
1.285,-0.675,3421
1.245,-0.565,3422
1.22,-0.51,3423
1.17,-0.48,3424
1.14,-0.46,3425
1.145,-0.45,3426
1.16,-0.4,3427
1.155,-0.345,3428
1.14,-0.31,3429
1.125,-0.3,3430
1.09,-0.305,3431
1.03,-0.3,3432
0.96,-0.275,3433
0.865,-0.235,3434
0.715,-0.19,3435
0.52,-0.14,3436
0.295,-0.07,3437
0.095,0.01,3438
-0.09,0.08,3439
-0.215,0.13,3440
-0.325,0.185,3441
-0.395,0.195,3442
-0.445,0.205,3443
-0.46,0.22,3444
-0.455,0.24,3445
-0.465,0.27,3446
-0.495,0.29,3447
-0.54,0.275,3448
-0.575,0.29,3449
-0.58,0.285,3450
-0.58,0.3,3451
-0.575,0.315,3452
-0.58,0.325,3453
-0.605,0.325,3454
-0.61,0.335,3455
-0.62,0.335,3456
-0.62,0.35,3457
-0.625,0.375,3458
-0.65,0.375,3459
-0.67,0.385,3460
-0.67,0.38,3461
-0.655,0.405,3462
-0.635,0.4,3463
-0.665,0.43,3464
-0.685,0.43,3465
-0.69,0.44,3466
-0.7,0.44,3467
-0.695,0.44,3468
-0.69,0.47,3469
-0.7,0.49,3470
-0.725,0.505,3471
-0.74,0.505,3472
-0.745,0.515,3473
-0.75,0.525,3474
-0.75,0.55,3475
-0.77,0.565,3476
-0.8,0.585,3477
-0.825,0.585,3478
-0.825,0.58,3479
-0.815,0.61,3480
-0.81,0.62,3481
-0.81,0.645,3482
-0.83,0.645,3483
-0.86,0.635,3484
-0.865,0.635,3485
-0.86,0.64,3486
-0.86,0.65,3487
-0.85,0.67,3488
-0.865,0.67,3489
-0.89,0.66,3490
-0.91,0.64,3491
-0.88,0.63,3492
-0.855,0.645,3493
-0.83,0.645,3494
-0.86,0.645,3495
-0.86,0.62,3496
-0.87,0.595,3497
-0.845,0.58,3498
-0.815,0.57,3499
-0.805,0.56,3500
-0.795,0.55,3501
-0.805,0.515,3502
-0.795,0.48,3503
-0.775,0.465,3504
-0.735,0.44,3505
-0.715,0.435,3506
-0.695,0.42,3507
-0.68,0.375,3508
-0.66,0.34,3509
-0.645,0.31,3510
-0.6,0.305,3511
-0.565,0.295,3512
-0.53,0.265,3513
-0.505,0.23,3514
-0.495,0.2,3515
-0.465,0.18,3516
-0.425,0.175,3517
-0.385,0.18,3518
-0.345,0.155,3519
-0.345,0.14,3520
-0.315,0.105,3521
-0.29,0.09,3522
-0.25,0.075,3523
-0.235,0.1,3524
-0.235,0.095,3525
-0.24,0.08,3526
-0.235,0.065,3527
-0.225,0.05,3528
-0.2,0.06,3529
-0.195,0.075,3530
-0.195,0.07,3531
-0.21,0.065,3532
-0.205,0.045,3533
-0.205,0.055,3534
-0.195,0.06,3535
-0.18,0.065,3536
-0.195,0.07,3537
-0.205,0.065,3538
-0.21,0.05,3539
-0.205,0.05,3540
-0.19,0.065,3541
-0.18,0.06,3542
-0.175,0.085,3543
-0.185,0.055,3544
-0.19,0.055,3545
-0.18,0.045,3546
-0.175,0.05,3547
-0.175,0.07,3548
-0.175,0.065,3549
-0.18,0.06,3550
-0.17,0.055,3551
-0.16,0.05,3552
-0.175,0.07,3553
-0.18,0.085,3554
-0.19,0.085,3555
-0.19,0.075,3556
-0.175,0.065,3557
-0.17,0.065,3558
-0.17,0.085,3559
-0.165,0.075,3560
-0.18,0.085,3561
-0.185,0.075,3562
-0.18,0.06,3563
-0.17,0.05,3564
-0.165,0.07,3565
-0.17,0.065,3566
-0.165,0.075,3567
-0.185,0.06,3568
-0.175,0.045,3569
-0.17,0.045,3570
-0.165,0.04,3571
-0.17,0.065,3572
-0.175,0.085,3573
-0.17,0.08,3574
-0.175,0.07,3575
-0.155,0.07,3576
-0.135,0.065,3577
-0.12,0.075,3578
-0.1,0.075,3579
-0.105,0.06,3580
-0.08,0.025,3581
-0.035,0.0,3582
0.015,-0.02,3583
0.06,-0.04,3584
0.085,-0.07,3585
0.12,-0.11,3586
0.165,-0.165,3587
0.235,-0.23,3588
0.32,-0.3,3589
0.39,-0.375,3590
0.475,-0.46,3591
0.545,-0.53,3592
0.62,-0.59,3593
0.71,-0.64,3594
0.805,-0.685,3595
0.885,-0.72,3596
0.94,-0.76,3597
1.025,-0.8,3598
1.13,-0.87,3599
1.225,-0.885,3600
1.305,-0.9,3601
1.385,-0.91,3602
1.455,-0.925,3603
1.55,-0.96,3604
1.63,-0.975,3605
1.67,-0.955,3606
1.66,-0.9,3607
1.62,-0.825,3608
1.54,-0.76,3609
1.48,-0.695,3610
1.42,-0.66,3611
1.355,-0.58,3612
1.315,-0.475,3613
1.235,-0.395,3614
1.17,-0.31,3615
1.105,-0.285,3616
1.055,-0.255,3617
1.035,-0.235,3618
1.035,-0.215,3619
1.02,-0.215,3620
1.0,-0.215,3621
0.995,-0.225,3622
0.965,-0.26,3623
0.885,-0.265,3624
0.76,-0.265,3625
0.595,-0.23,3626
0.4,-0.18,3627
0.19,-0.105,3628
0.01,-0.04,3629
-0.125,0.045,3630
-0.225,0.105,3631
-0.305,0.155,3632
-0.37,0.185,3633
-0.415,0.2,3634
-0.445,0.2,3635
-0.455,0.21,3636
-0.475,0.23,3637
-0.485,0.245,3638
-0.51,0.26,3639
-0.52,0.265,3640
-0.535,0.255,3641
-0.54,0.265,3642
-0.545,0.275,3643
-0.56,0.295,3644
-0.57,0.305,3645
-0.595,0.315,3646
-0.6,0.31,3647
-0.6,0.3,3648
-0.605,0.325,3649
-0.605,0.34,3650
-0.63,0.35,3651
-0.645,0.345,3652
-0.65,0.35,3653
-0.645,0.37,3654
-0.65,0.38,3655
-0.67,0.39,3656
-0.68,0.405,3657
-0.705,0.415,3658
-0.69,0.41,3659
-0.695,0.43,3660
-0.7,0.45,3661
-0.71,0.48,3662
-0.735,0.485,3663
-0.765,0.485,3664
-0.77,0.48,3665
-0.78,0.5,3666
-0.77,0.505,3667
-0.78,0.53,3668
-0.805,0.55,3669
-0.82,0.545,3670
-0.825,0.53,3671
-0.825,0.535,3672
-0.825,0.545,3673
-0.825,0.57,3674
-0.85,0.575,3675
-0.86,0.56,3676
-0.86,0.55,3677
-0.86,0.55,3678
-0.85,0.55,3679
-0.855,0.56,3680
-0.87,0.555,3681
-0.87,0.535,3682
-0.875,0.51,3683
-0.855,0.515,3684
-0.825,0.515,3685
-0.82,0.505,3686
-0.83,0.49,3687
-0.82,0.46,3688
-0.795,0.435,3689
-0.765,0.42,3690
-0.74,0.405,3691
-0.74,0.385,3692
-0.73,0.36,3693
-0.7,0.325,3694
-0.675,0.29,3695
-0.635,0.27,3696
-0.58,0.255,3697
-0.555,0.235,3698
-0.55,0.21,3699
-0.515,0.195,3700
-0.48,0.15,3701
-0.43,0.135,3702
-0.375,0.13,3703
-0.355,0.135,3704
-0.35,0.115,3705
-0.33,0.1,3706
-0.31,0.08,3707
-0.285,0.065,3708
-0.24,0.07,3709
-0.235,0.07,3710
-0.235,0.06,3711
-0.24,0.055,3712
-0.225,0.035,3713
-0.22,0.045,3714
-0.18,0.05,3715
-0.19,0.065,3716
-0.205,0.055,3717
-0.21,0.03,3718
-0.215,0.035,3719
-0.19,0.025,3720
-0.185,0.045,3721
-0.18,0.055,3722
-0.195,0.05,3723
-0.215,0.045,3724
-0.2,0.035,3725
-0.19,0.03,3726
-0.185,0.035,3727
-0.195,0.055,3728
-0.225,0.055,3729
-0.215,0.045,3730
-0.205,0.03,3731
-0.19,0.03,3732
-0.17,0.05,3733
-0.185,0.055,3734
-0.215,0.055,3735
-0.24,0.035,3736
-0.225,0.035,3737
-0.195,0.035,3738
-0.165,0.045,3739
-0.155,0.05,3740
-0.185,0.05,3741
-0.2,0.04,3742
-0.195,0.025,3743
-0.185,0.02,3744
-0.17,0.03,3745
-0.16,0.045,3746
-0.18,0.04,3747
-0.19,0.035,3748
-0.18,0.02,3749
-0.17,0.025,3750
-0.15,0.025,3751
-0.14,0.035,3752
-0.17,0.035,3753
-0.17,0.03,3754
-0.155,0.015,3755
-0.14,0.01,3756
-0.125,0.025,3757
-0.135,0.025,3758
-0.135,0.03,3759
-0.17,0.015,3760
-0.16,0.0,3761
-0.13,-0.01,3762
-0.11,0.015,3763
-0.11,0.03,3764
-0.135,0.015,3765
-0.145,0.015,3766
-0.145,0.0,3767
-0.135,-0.005,3768
-0.12,0.01,3769
-0.09,0.02,3770
-0.11,0.015,3771
-0.145,0.0,3772
-0.135,-0.015,3773
-0.11,-0.005,3774
-0.09,0.01,3775
-0.095,0.015,3776
-0.105,0.01,3777
-0.14,-0.005,3778
-0.135,-0.015,3779
-0.11,-0.01,3780
-0.095,-0.005,3781
-0.09,0.01,3782
-0.105,0.02,3783
-0.11,0.0,3784
-0.115,-0.02,3785
-0.1,-0.02,3786
-0.085,-0.015,3787
-0.085,0.01,3788
-0.11,0.015,3789
-0.14,-0.005,3790
-0.14,-0.02,3791
-0.12,-0.015,3792
-0.09,-0.005,3793
-0.09,0.01,3794
-0.1,0.01,3795
-0.125,-0.01,3796
-0.13,-0.015,3797
-0.125,-0.015,3798
-0.1,-0.005,3799
-0.085,0.005,3800
-0.105,0.0,3801
-0.105,-0.01,3802
-0.125,-0.02,3803
-0.115,-0.02,3804
-0.09,-0.025,3805
-0.08,-0.005,3806
-0.09,0.005,3807
-0.105,-0.01,3808
-0.115,-0.02,3809
-0.11,-0.035,3810
-0.09,-0.015,3811
-0.09,0.005,3812
-0.095,-0.01,3813
-0.1,-0.015,3814
-0.125,-0.03,3815
-0.105,-0.03,3816
-0.075,-0.02,3817
-0.07,-0.01,3818
-0.085,-0.005,3819
-0.085,-0.01,3820
-0.105,-0.03,3821
-0.085,-0.035,3822
-0.07,-0.02,3823
-0.06,0.01,3824
-0.065,0.0,3825
-0.055,0.0,3826
-0.055,0.0,3827
-0.03,0.005,3828
-0.01,0.015,3829
0.005,0.03,3830
0.0,0.03,3831
0.015,0.035,3832
0.025,0.015,3833
0.04,0.005,3834
0.07,0.005,3835
0.085,0.01,3836
0.09,0.015,3837
0.09,-0.02,3838
0.085,-0.055,3839
0.08,-0.06,3840
0.085,-0.07,3841
0.085,-0.055,3842
0.055,-0.055,3843
0.045,-0.06,3844
0.035,-0.065,3845
0.025,-0.07,3846
0.02,-0.075,3847
-0.01,-0.06,3848
-0.025,-0.05,3849
-0.055,-0.06,3850
-0.06,-0.055,3851
-0.055,-0.045,3852
-0.05,-0.055,3853
-0.065,-0.035,3854
-0.08,-0.035,3855
-0.1,-0.045,3856
-0.11,-0.055,3857
-0.11,-0.045,3858
-0.105,-0.05,3859
-0.095,-0.035,3860
-0.1,-0.035,3861
-0.115,-0.05,3862
-0.11,-0.055,3863
-0.12,-0.06,3864
-0.09,-0.045,3865
-0.085,-0.04,3866
-0.095,-0.035,3867
-0.105,-0.05,3868
-0.1,-0.055,3869
-0.11,-0.06,3870
-0.105,-0.05,3871
-0.085,-0.04,3872
-0.1,-0.06,3873
-0.115,-0.08,3874
-0.14,-0.08,3875
-0.14,-0.065,3876
-0.07,-0.055,3877
0.055,-0.07,3878
0.19,-0.125,3879
0.35,-0.19,3880
0.535,-0.27,3881
0.8,-0.275,3882
1.105,-0.265,3883
1.39,-0.26,3884
1.625,-0.26,3885
1.72,-0.26,3886
1.62,-0.23,3887
1.325,-0.16,3888
0.955,-0.11,3889
0.58,-0.085,3890
0.245,-0.095,3891
0.0,-0.13,3892
-0.105,-0.165,3893
-0.13,-0.175,3894
-0.12,-0.16,3895
-0.105,-0.125,3896
-0.145,-0.1,3897
-0.135,-0.08,3898
-0.135,-0.07,3899
-0.11,-0.055,3900
-0.115,-0.04,3901
-0.115,-0.025,3902
-0.13,-0.025,3903
-0.14,-0.04,3904
-0.14,-0.035,3905
-0.135,-0.03,3906
-0.14,-0.03,3907
-0.15,-0.03,3908
-0.155,-0.03,3909
-0.16,-0.025,3910
-0.155,-0.05,3911
-0.15,-0.045,3912
-0.145,-0.03,3913
-0.14,-0.015,3914
-0.135,-0.015,3915
-0.15,-0.025,3916
-0.145,-0.045,3917
-0.145,-0.035,3918
-0.15,-0.025,3919
-0.13,-0.015,3920
-0.145,-0.015,3921
-0.155,-0.03,3922
-0.135,-0.03,3923
-0.135,-0.035,3924
-0.12,-0.035,3925
-0.11,-0.015,3926
-0.12,-0.015,3927
-0.13,-0.03,3928
-0.12,-0.035,3929
-0.1,-0.05,3930
-0.11,-0.045,3931
-0.095,-0.035,3932
-0.105,-0.045,3933
-0.095,-0.055,3934
-0.085,-0.065,3935
-0.07,-0.08,3936
-0.055,-0.08,3937
-0.035,-0.07,3938
-0.05,-0.075,3939
-0.05,-0.085,3940
-0.05,-0.1,3941
-0.04,-0.105,3942
-0.01,-0.095,3943
-0.005,-0.1,3944
0.01,-0.1,3945
0.015,-0.12,3946
0.015,-0.13,3947
0.03,-0.145,3948
0.045,-0.15,3949
0.055,-0.145,3950
0.065,-0.16,3951
0.075,-0.17,3952
0.08,-0.205,3953
0.085,-0.225,3954
0.12,-0.22,3955
0.14,-0.22,3956
0.14,-0.22,3957
0.16,-0.25,3958
0.17,-0.275,3959
0.185,-0.28,3960
0.22,-0.27,3961
0.215,-0.28,3962
0.23,-0.28,3963
0.24,-0.29,3964
0.23,-0.295,3965
0.245,-0.305,3966
0.265,-0.315,3967
0.265,-0.3,3968
0.285,-0.295,3969
0.275,-0.3,3970
0.28,-0.305,3971
0.27,-0.3,3972
0.295,-0.29,3973
0.285,-0.28,3974
0.27,-0.27,3975
0.255,-0.26,3976
0.255,-0.26,3977
0.27,-0.24,3978
0.25,-0.215,3979
0.215,-0.175,3980
0.21,-0.175,3981
0.175,-0.16,3982
0.165,-0.155,3983
0.14,-0.115,3984
0.14,-0.105,3985
0.11,-0.07,3986
0.085,-0.04,3987
0.07,-0.045,3988
0.035,-0.035,3989
0.03,-0.03,3990
0.005,-0.01,3991
0.0,0.025,3992
-0.02,0.025,3993
-0.055,0.03,3994
-0.06,0.015,3995
-0.085,0.02,3996
-0.07,0.025,3997
-0.075,0.05,3998
-0.1,0.045,3999
-0.105,0.05,4000
-0.105,0.04,4001
-0.105,0.035,4002
-0.1,0.045,4003
-0.1,0.06,4004
-0.105,0.065,4005
-0.115,0.055,4006
-0.13,0.045,4007
-0.115,0.055,4008
-0.1,0.055,4009
-0.085,0.07,4010
-0.09,0.075,4011
-0.105,0.06,4012
-0.11,0.04,4013
-0.115,0.045,4014
-0.09,0.045,4015
-0.08,0.07,4016
-0.085,0.065,4017
-0.105,0.055,4018
-0.115,0.035,4019
-0.1,0.035,4020
-0.08,0.04,4021
-0.065,0.06,4022
-0.09,0.055,4023
-0.1,0.045,4024
-0.12,0.025,4025
-0.11,0.02,4026
-0.095,0.035,4027
-0.09,0.045,4028
-0.08,0.04,4029
-0.095,0.035,4030
-0.115,0.02,4031
-0.105,0.015,4032
-0.07,0.02,4033
-0.08,0.03,4034
-0.075,0.04,4035
-0.095,0.03,4036
-0.115,0.03,4037
-0.095,0.035,4038
-0.075,0.045,4039
-0.06,0.06,4040
-0.06,0.075,4041
-0.06,0.065,4042
-0.06,0.06,4043
-0.03,0.065,4044
-0.015,0.07,4045
0.0,0.09,4046
0.005,0.09,4047
0.02,0.07,4048
0.02,0.045,4049
0.04,0.03,4050
0.075,0.045,4051
0.075,0.05,4052
0.07,0.02,4053
0.035,0.0,4054
0.015,-0.015,4055
0.025,-0.02,4056
0.03,-0.005,4057
0.02,0.02,4058
0.0,0.01,4059
-0.04,0.01,4060
-0.085,0.01,4061
-0.095,0.01,4062
-0.085,0.035,4063
-0.085,0.055,4064
-0.1,0.085,4065
-0.115,0.055,4066
-0.1,0.03,4067
-0.05,0.02,4068
0.0,-0.01,4069
0.03,-0.045,4070
0.06,-0.08,4071
0.1,-0.135,4072
0.17,-0.2,4073
0.245,-0.265,4074
0.335,-0.335,4075
0.405,-0.43,4076
0.475,-0.555,4077
0.515,-0.66,4078
0.595,-0.75,4079
0.69,-0.815,4080
0.75,-0.88,4081
0.8,-0.925,4082
0.845,-1.01,4083
0.92,-1.08,4084
1.025,-1.15,4085
1.11,-1.165,4086
1.17,-1.18,4087
1.23,-1.21,4088
1.285,-1.25,4089
1.36,-1.28,4090
1.49,-1.28,4091
1.585,-1.27,4092
1.655,-1.265,4093
1.695,-1.265,4094
1.73,-1.255,4095
1.795,-1.23,4096
1.905,-1.145,4097
2.0,-1.025,4098
2.045,-0.895,4099
1.855,-0.755,4100
1.47,-0.585,4101
1.045,-0.415,4102
0.695,-0.255,4103
0.42,-0.135,4104
0.165,-0.045,4105
-0.03,0.03,4106
-0.175,0.07,4107
-0.265,0.095,4108
-0.31,0.13,4109
-0.32,0.155,4110
-0.35,0.21,4111
-0.39,0.225,4112
-0.42,0.24,4113
-0.445,0.245,4114
-0.465,0.25,4115
-0.465,0.26,4116
-0.485,0.28,4117
-0.505,0.305,4118
-0.52,0.31,4119
-0.525,0.295,4120
-0.525,0.295,4121
-0.525,0.295,4122
-0.515,0.32,4123
-0.53,0.33,4124
-0.545,0.33,4125
-0.555,0.34,4126
-0.545,0.33,4127
-0.54,0.34,4128
-0.535,0.355,4129
-0.545,0.365,4130
-0.575,0.375,4131
-0.585,0.385,4132
-0.58,0.395,4133
-0.57,0.395,4134
-0.565,0.42,4135
-0.59,0.43,4136
-0.6,0.45,4137
-0.605,0.46,4138
-0.63,0.455,4139
-0.61,0.465,4140
-0.62,0.49,4141
-0.635,0.5,4142
-0.645,0.51,4143
-0.655,0.53,4144
-0.665,0.525,4145
-0.665,0.54,4146
-0.675,0.56,4147
-0.675,0.575,4148
-0.705,0.605,4149
-0.71,0.595,4150
-0.7,0.595,4151
-0.7,0.61,4152
-0.705,0.625,4153
-0.715,0.64,4154
-0.72,0.655,4155
-0.735,0.65,4156
-0.72,0.645,4157
-0.72,0.635,4158
-0.71,0.64,4159
-0.71,0.65,4160
-0.71,0.65,4161
-0.71,0.635,4162
-0.71,0.62,4163
-0.7,0.605,4164
-0.7,0.62,4165
-0.675,0.605,4166
-0.675,0.585,4167
-0.65,0.56,4168
-0.635,0.525,4169
-0.61,0.515,4170
-0.595,0.505,4171
-0.58,0.495,4172
-0.555,0.465,4173
-0.545,0.42,4174
-0.51,0.385,4175
-0.485,0.36,4176
-0.455,0.345,4177
-0.43,0.33,4178
-0.405,0.31,4179
-0.385,0.28,4180
-0.355,0.26,4181
-0.345,0.225,4182
-0.315,0.215,4183
-0.305,0.215,4184
-0.28,0.19,4185
-0.28,0.175,4186
-0.27,0.155,4187
-0.24,0.155,4188
-0.23,0.145,4189
-0.215,0.15,4190
-0.225,0.14,4191
-0.21,0.135,4192
-0.215,0.12,4193
-0.205,0.135,4194
-0.2,0.13,4195
-0.225,0.125,4196
-0.215,0.125,4197
-0.24,0.115,4198
-0.24,0.105,4199
-0.21,0.11,4200
-0.22,0.11,4201
-0.225,0.12,4202
-0.225,0.12,4203
-0.245,0.105,4204
-0.235,0.085,4205
-0.225,0.095,4206
-0.215,0.105,4207
-0.215,0.11,4208
-0.22,0.095,4209
-0.235,0.09,4210
-0.22,0.085,4211
-0.2,0.09,4212
-0.195,0.1,4213
-0.195,0.11,4214
-0.21,0.115,4215
-0.23,0.095,4216
-0.23,0.1,4217
-0.205,0.09,4218
-0.205,0.1,4219
-0.195,0.115,4220
-0.205,0.1,4221
-0.23,0.095,4222
-0.22,0.095,4223
-0.21,0.085,4224
-0.205,0.1,4225
-0.21,0.11,4226
-0.23,0.1,4227
-0.24,0.1,4228
-0.23,0.075,4229
-0.215,0.09,4230
-0.195,0.085,4231
-0.19,0.115,4232
-0.2,0.1,4233
-0.23,0.1,4234
-0.23,0.105,4235
-0.205,0.105,4236
-0.18,0.11,4237
-0.16,0.105,4238
-0.155,0.1,4239
-0.15,0.065,4240
-0.14,0.035,4241
-0.095,0.03,4242
-0.06,0.02,4243
-0.02,0.015,4244
0.0,-0.02,4245
0.02,-0.065,4246
0.075,-0.135,4247
0.16,-0.2,4248
0.25,-0.25,4249
0.335,-0.335,4250
0.395,-0.415,4251
0.455,-0.51,4252
0.515,-0.58,4253
0.615,-0.65,4254
0.72,-0.7,4255
0.795,-0.755,4256
0.845,-0.84,4257
0.885,-0.92,4258
0.95,-0.98,4259
1.03,-1.015,4260
1.085,-1.015,4261
1.18,-1.02,4262
1.26,-1.04,4263
1.325,-1.035,4264
1.36,-1.02,4265
1.385,-0.985,4266
1.38,-0.92,4267
1.335,-0.845,4268
1.275,-0.77,4269
1.225,-0.72,4270
1.2,-0.63,4271
1.17,-0.525,4272
1.185,-0.415,4273
1.17,-0.335,4274
1.125,-0.29,4275
1.065,-0.26,4276
1.04,-0.26,4277
1.03,-0.26,4278
1.025,-0.235,4279
1.045,-0.205,4280
1.055,-0.205,4281
1.03,-0.205,4282
0.97,-0.235,4283
0.87,-0.23,4284
0.73,-0.21,4285
0.57,-0.165,4286
0.365,-0.1,4287
0.13,-0.04,4288
-0.075,0.05,4289
-0.225,0.13,4290
-0.325,0.19,4291
-0.395,0.22,4292
-0.445,0.24,4293
-0.485,0.245,4294
-0.505,0.25,4295
-0.525,0.265,4296
-0.53,0.295,4297
-0.56,0.3,4298
-0.6,0.305,4299
-0.6,0.31,4300
-0.62,0.305,4301
-0.625,0.315,4302
-0.635,0.335,4303
-0.64,0.345,4304
-0.66,0.355,4305
-0.695,0.355,4306
-0.69,0.355,4307
-0.69,0.35,4308
-0.68,0.385,4309
-0.685,0.385,4310
-0.715,0.4,4311
-0.745,0.395,4312
-0.755,0.395,4313
-0.76,0.41,4314
-0.755,0.43,4315
-0.765,0.445,4316
-0.785,0.45,4317
-0.815,0.45,4318
-0.825,0.455,4319
-0.815,0.465,4320
-0.84,0.5,4321
-0.86,0.51,4322
-0.885,0.525,4323
-0.9,0.52,4324
-0.895,0.52,4325
-0.9,0.515,4326
-0.895,0.555,4327
-0.915,0.555,4328
-0.94,0.585,4329
-0.97,0.56,4330
-1.0,0.565,4331
-0.965,0.57,4332
-0.96,0.57,4333
-0.98,0.59,4334
-0.985,0.595,4335
-1.0,0.575,4336
-1.005,0.56,4337
-0.98,0.575,4338
-0.955,0.565,4339
-0.965,0.565,4340
-0.975,0.565,4341
-0.975,0.53,4342
-0.965,0.525,4343
-0.935,0.505,4344
-0.905,0.5,4345
-0.89,0.485,4346
-0.87,0.465,4347
-0.86,0.44,4348
-0.845,0.395,4349
-0.81,0.39,4350
-0.77,0.38,4351
-0.73,0.36,4352
-0.705,0.34,4353
-0.695,0.295,4354
-0.655,0.27,4355
-0.61,0.24,4356
-0.555,0.235,4357
-0.525,0.235,4358
-0.52,0.215,4359
-0.505,0.2,4360
-0.475,0.17,4361
-0.43,0.15,4362
-0.395,0.155,4363
-0.385,0.155,4364
-0.365,0.145,4365
-0.36,0.13,4366
-0.345,0.105,4367
-0.31,0.115,4368
-0.29,0.13,4369
-0.29,0.125,4370
-0.295,0.125,4371
-0.295,0.115,4372
-0.295,0.1,4373
-0.27,0.105,4374
-0.255,0.115,4375
-0.255,0.12,4376
-0.28,0.13,4377
-0.295,0.115,4378
-0.295,0.105,4379
-0.29,0.095,4380
-0.275,0.115,4381
-0.27,0.125,4382
-0.265,0.12,4383
-0.265,0.115,4384
-0.27,0.095,4385
-0.28,0.105,4386
-0.255,0.11,4387
-0.26,0.125,4388
-0.275,0.125,4389
-0.28,0.115,4390
-0.28,0.095,4391
-0.245,0.105,4392
-0.25,0.11,4393
-0.245,0.115,4394
-0.26,0.125,4395
-0.27,0.095,4396
-0.26,0.095,4397
-0.25,0.085,4398
-0.23,0.09,4399
-0.22,0.1,4400
-0.235,0.095,4401
-0.25,0.095,4402
-0.245,0.075,4403
-0.24,0.085,4404
-0.235,0.09,4405
-0.225,0.095,4406
-0.225,0.09,4407
-0.25,0.085,4408
-0.245,0.095,4409
-0.22,0.07,4410
-0.205,0.09,4411
-0.205,0.105,4412
-0.22,0.095,4413
-0.22,0.09,4414
-0.225,0.075,4415
-0.205,0.07,4416
-0.21,0.08,4417
-0.2,0.09,4418
-0.21,0.075,4419
-0.23,0.065,4420
-0.23,0.055,4421
-0.21,0.065,4422
-0.195,0.065,4423
-0.2,0.07,4424
-0.215,0.07,4425
-0.23,0.065,4426
-0.21,0.055,4427
-0.2,0.05,4428
-0.205,0.055,4429
-0.215,0.06,4430
-0.235,0.06,4431
-0.23,0.045,4432
-0.21,0.045,4433
-0.21,0.045,4434
-0.195,0.05,4435
-0.185,0.055,4436
-0.205,0.06,4437
-0.225,0.045,4438
-0.215,0.035,4439
-0.215,0.035,4440
-0.195,0.04,4441
-0.195,0.06,4442
-0.2,0.055,4443
-0.21,0.06,4444
-0.215,0.03,4445
-0.2,0.04,4446
-0.185,0.045,4447
-0.175,0.055,4448
-0.2,0.065,4449
-0.225,0.045,4450
-0.2,0.035,4451
-0.185,0.025,4452
-0.17,0.045,4453
-0.175,0.055,4454
-0.2,0.035,4455
-0.21,0.04,4456
-0.205,0.025,4457
-0.195,0.025,4458
-0.175,0.04,4459
-0.17,0.04,4460
-0.19,0.045,4461
-0.21,0.04,4462
-0.21,0.025,4463
-0.185,0.03,4464
-0.175,0.045,4465
-0.19,0.045,4466
-0.2,0.03,4467
-0.215,0.035,4468
-0.205,0.03,4469
-0.18,0.025,4470
-0.175,0.03,4471
-0.18,0.04,4472
-0.2,0.035,4473
-0.195,0.03,4474
-0.2,0.015,4475
-0.19,0.02,4476
-0.165,0.04,4477
-0.17,0.035,4478
-0.195,0.035,4479
-0.195,0.015,4480
-0.195,0.015,4481
-0.185,0.03,4482
-0.17,0.015,4483
-0.17,0.03,4484
-0.205,0.035,4485
-0.195,0.03,4486
-0.185,0.015,4487
-0.175,0.03,4488
-0.16,0.03,4489
-0.17,0.035,4490
-0.18,0.035,4491
-0.21,0.025,4492
-0.2,0.025,4493
-0.175,0.025,4494
-0.155,0.03,4495
-0.155,0.03,4496
-0.185,0.03,4497
-0.2,0.02,4498
-0.195,0.005,4499
-0.17,0.015,4500
-0.17,0.03,4501
-0.155,0.05,4502
-0.165,0.035,4503
-0.18,0.03,4504
-0.175,0.02,4505
-0.15,0.015,4506
-0.135,0.035,4507
-0.13,0.05,4508
-0.13,0.05,4509
-0.135,0.05,4510
-0.12,0.04,4511
-0.11,0.045,4512
-0.08,0.065,4513
-0.09,0.08,4514
-0.075,0.08,4515
-0.055,0.045,4516
-0.035,0.025,4517
-0.01,0.025,4518
0.015,0.02,4519
0.015,0.0,4520
-0.005,0.0,4521
-0.04,-0.025,4522
-0.04,-0.045,4523
-0.04,-0.035,4524
-0.03,-0.03,4525
-0.035,-0.015,4526
-0.07,-0.01,4527
-0.115,-0.015,4528
-0.13,-0.04,4529
-0.145,-0.03,4530
-0.14,-0.02,4531
-0.155,0.005,4532
-0.18,0.005,4533
-0.205,-0.01,4534
-0.18,-0.025,4535
-0.17,-0.03,4536
-0.16,-0.005,4537
-0.17,0.0,4538
-0.17,0.0,4539
-0.185,-0.015,4540
-0.19,-0.03,4541
-0.17,-0.03,4542
-0.165,-0.02,4543
-0.15,0.0,4544
-0.185,-0.02,4545
-0.175,-0.03,4546
-0.195,-0.04,4547
-0.18,-0.03,4548
-0.17,-0.025,4549
-0.17,-0.01,4550
-0.17,-0.015,4551
-0.185,-0.03,4552
-0.175,-0.045,4553
-0.17,-0.065,4554
-0.175,-0.06,4555
-0.175,-0.045,4556
-0.115,-0.055,4557
-0.01,-0.105,4558
0.125,-0.16,4559
0.315,-0.22,4560
0.545,-0.235,4561
0.795,-0.235,4562
1.08,-0.23,4563
1.35,-0.24,4564
1.53,-0.225,4565
1.5,-0.19,4566
1.24,-0.105,4567
0.87,-0.07,4568
0.475,-0.045,4569
0.11,-0.065,4570
-0.11,-0.105,4571
-0.175,-0.12,4572
-0.165,-0.11,4573
-0.19,-0.085,4574
-0.205,-0.045,4575
-0.215,-0.04,4576
-0.195,-0.035,4577
-0.19,-0.025,4578
-0.19,-0.01,4579
-0.2,0.0,4580
-0.215,0.01,4581
-0.245,-0.005,4582
-0.225,-0.015,4583
-0.225,-0.01,4584
-0.205,-0.005,4585
-0.215,0.01,4586
-0.225,0.005,4587
-0.24,0.0,4588
-0.25,-0.015,4589
-0.225,-0.015,4590
-0.205,-0.005,4591
-0.205,0.005,4592
-0.205,0.01,4593
-0.22,-0.02,4594
-0.235,-0.035,4595
-0.235,-0.01,4596
-0.2,-0.01,4597
-0.195,-0.01,4598
-0.2,0.0,4599
-0.205,-0.02,4600
-0.205,-0.025,4601
-0.195,-0.02,4602
-0.185,-0.01,4603
-0.18,-0.01,4604
-0.195,0.0,4605
-0.205,-0.03,4606
-0.195,-0.03,4607
-0.18,-0.035,4608
-0.145,-0.03,4609
-0.145,-0.035,4610
-0.14,-0.04,4611
-0.155,-0.055,4612
-0.13,-0.055,4613
-0.11,-0.055,4614
-0.095,-0.05,4615
-0.095,-0.065,4616
-0.105,-0.075,4617
-0.1,-0.075,4618
-0.08,-0.105,4619
-0.065,-0.1,4620
-0.03,-0.11,4621
-0.03,-0.09,4622
-0.055,-0.11,4623
-0.04,-0.125,4624
-0.03,-0.15,4625
0.0,-0.165,4626
0.015,-0.155,4627
0.03,-0.17,4628
0.025,-0.165,4629
0.03,-0.19,4630
0.05,-0.215,4631
0.075,-0.215,4632
0.09,-0.2,4633
0.1,-0.205,4634
0.09,-0.21,4635
0.09,-0.23,4636
0.11,-0.25,4637
0.135,-0.26,4638
0.16,-0.24,4639
0.17,-0.24,4640
0.165,-0.245,4641
0.165,-0.26,4642
0.185,-0.27,4643
0.195,-0.265,4644
0.225,-0.255,4645
0.235,-0.24,4646
0.215,-0.225,4647
0.195,-0.225,4648
0.195,-0.225,4649
0.205,-0.21,4650
0.215,-0.19,4651
0.175,-0.165,4652
0.125,-0.155,4653
0.125,-0.145,4654
0.085,-0.14,4655
0.09,-0.125,4656
0.11,-0.085,4657
0.095,-0.06,4658
0.065,-0.045,4659
0.03,-0.045,4660
0.005,-0.035,4661
0.0,-0.025,4662
-0.02,0.005,4663
-0.02,0.02,4664
-0.04,0.03,4665
-0.08,0.03,4666
-0.105,0.04,4667
-0.1,0.045,4668
-0.105,0.055,4669
-0.095,0.085,4670
-0.12,0.075,4671
-0.155,0.075,4672
-0.15,0.065,4673
-0.145,0.07,4674
-0.13,0.09,4675
-0.135,0.085,4676
-0.145,0.09,4677
-0.16,0.09,4678
-0.16,0.08,4679
-0.145,0.085,4680
-0.125,0.085,4681
-0.13,0.095,4682
-0.135,0.095,4683
-0.145,0.09,4684
-0.13,0.075,4685
-0.15,0.075,4686
-0.12,0.09,4687
-0.115,0.095,4688
-0.13,0.08,4689
-0.14,0.08,4690
-0.15,0.055,4691
-0.135,0.07,4692
-0.105,0.075,4693
-0.11,0.08,4694
-0.135,0.08,4695
-0.15,0.065,4696
-0.145,0.06,4697
-0.125,0.06,4698
-0.12,0.075,4699
-0.11,0.075,4700
-0.12,0.075,4701
-0.14,0.06,4702
-0.16,0.06,4703
-0.12,0.06,4704
-0.095,0.07,4705
-0.095,0.09,4706
-0.105,0.085,4707
-0.11,0.075,4708
-0.1,0.075,4709
-0.07,0.08,4710
-0.05,0.095,4711
-0.04,0.1,4712
-0.06,0.105,4713
-0.045,0.095,4714
-0.025,0.07,4715
0.015,0.075,4716
0.05,0.075,4717
0.065,0.07,4718
0.04,0.06,4719
0.03,0.04,4720
0.02,0.025,4721
0.03,0.03,4722
0.03,0.035,4723
0.025,0.05,4724
-0.01,0.055,4725
-0.045,0.06,4726
-0.035,0.045,4727
-0.04,0.05,4728
-0.04,0.06,4729
-0.075,0.08,4730
-0.105,0.07,4731
-0.15,0.07,4732
-0.12,0.045,4733
-0.08,0.03,4734
-0.01,0.01,4735
0.015,-0.01,4736
0.035,-0.055,4737
0.065,-0.11,4738
0.115,-0.165,4739
0.2,-0.23,4740
0.285,-0.31,4741
0.375,-0.39,4742
0.44,-0.48,4743
0.505,-0.56,4744
0.565,-0.64,4745
0.645,-0.68,4746
0.735,-0.725,4747
0.8,-0.745,4748
0.845,-0.79,4749
0.915,-0.85,4750
1.015,-0.89,4751
1.11,-0.93,4752
1.18,-0.945,4753
1.245,-0.955,4754
1.33,-0.995,4755
1.43,-1.02,4756
1.535,-1.045,4757
1.575,-1.015,4758
1.565,-0.96,4759
1.54,-0.89,4760
1.55,-0.845,4761
1.605,-0.84,4762
1.67,-0.845,4763
1.705,-0.815,4764
1.76,-0.745,4765
1.8,-0.68,4766
1.815,-0.615,4767
1.815,-0.575,4768
1.765,-0.525,4769
1.57,-0.45,4770
1.245,-0.365,4771
0.895,-0.255,4772
0.59,-0.165,4773
0.33,-0.095,4774
0.105,-0.04,4775
-0.045,0.01,4776
-0.145,0.07,4777
-0.215,0.13,4778
-0.3,0.165,4779
-0.375,0.19,4780
-0.41,0.195,4781
-0.425,0.22,4782
-0.445,0.255,4783
-0.46,0.27,4784
-0.49,0.28,4785
-0.52,0.28,4786
-0.51,0.28,4787
-0.52,0.29,4788
-0.505,0.305,4789
-0.535,0.325,4790
-0.565,0.325,4791
-0.585,0.335,4792
-0.57,0.315,4793
-0.555,0.335,4794
-0.545,0.355,4795
-0.565,0.375,4796
-0.59,0.375,4797
-0.61,0.36,4798
-0.61,0.37,4799
-0.595,0.38,4800
-0.585,0.41,4801
-0.595,0.43,4802
-0.625,0.455,4803
-0.64,0.43,4804
-0.64,0.43,4805
-0.645,0.455,4806
-0.635,0.47,4807
-0.665,0.505,4808
-0.68,0.5,4809
-0.715,0.505,4810
-0.705,0.515,4811
-0.705,0.53,4812
-0.685,0.555,4813
-0.7,0.58,4814
-0.72,0.59,4815
-0.76,0.585,4816
-0.765,0.59,4817
-0.77,0.6,4818
-0.755,0.615,4819
-0.755,0.64,4820
-0.78,0.65,4821
-0.795,0.64,4822
-0.8,0.64,4823
-0.8,0.64,4824
-0.795,0.665,4825
-0.795,0.675,4826
-0.815,0.675,4827
-0.835,0.65,4828
-0.82,0.65,4829
-0.81,0.645,4830
-0.795,0.65,4831
-0.79,0.645,4832
-0.8,0.63,4833
-0.81,0.615,4834
-0.79,0.59,4835
-0.75,0.58,4836
-0.73,0.575,4837
-0.71,0.56,4838
-0.72,0.525,4839
-0.72,0.5,4840
-0.68,0.455,4841
-0.64,0.435,4842
-0.59,0.42,4843
-0.555,0.415,4844
-0.56,0.395,4845
-0.55,0.355,4846
-0.52,0.315,4847
-0.485,0.3,4848
-0.43,0.295,4849
-0.4,0.275,4850
-0.385,0.255,4851
-0.365,0.235,4852
-0.33,0.2,4853
-0.3,0.19,4854
-0.265,0.185,4855
-0.25,0.18,4856
-0.25,0.175,4857
-0.245,0.155,4858
-0.235,0.135,4859
-0.21,0.135,4860
-0.185,0.14,4861
-0.195,0.14,4862
-0.21,0.135,4863
-0.22,0.115,4864
-0.21,0.1,4865
-0.2,0.12,4866
-0.175,0.115,4867
-0.185,0.13,4868
-0.205,0.125,4869
-0.205,0.095,4870
-0.19,0.09,4871
-0.175,0.105,4872
-0.16,0.11,4873
-0.16,0.115,4874
-0.175,0.12,4875
-0.19,0.105,4876
-0.17,0.095,4877
-0.16,0.1,4878
-0.15,0.1,4879
-0.16,0.13,4880
-0.175,0.11,4881
-0.175,0.105,4882
-0.165,0.085,4883
-0.16,0.095,4884
-0.155,0.11,4885
-0.15,0.12,4886
-0.165,0.125,4887
-0.185,0.105,4888
-0.165,0.09,4889
-0.16,0.11,4890
-0.15,0.12,4891
-0.135,0.13,4892
-0.16,0.115,4893
-0.145,0.115,4894
-0.13,0.105,4895
-0.125,0.115,4896
-0.115,0.115,4897
-0.115,0.12,4898
-0.135,0.11,4899
-0.125,0.11,4900
-0.13,0.1,4901
-0.11,0.105,4902
-0.11,0.125,4903
-0.095,0.115,4904
-0.11,0.095,4905
-0.11,0.095,4906
-0.105,0.09,4907
-0.1,0.095,4908
-0.085,0.105,4909
-0.075,0.11,4910
-0.085,0.115,4911
-0.095,0.095,4912
-0.08,0.09,4913
-0.065,0.105,4914
-0.06,0.11,4915
-0.075,0.13,4916
-0.055,0.13,4917
-0.03,0.11,4918
-0.01,0.1,4919
0.02,0.12,4920
0.055,0.1,4921
0.095,0.095,4922
0.135,0.07,4923
0.185,0.04,4924
0.24,-0.005,4925
0.315,-0.045,4926
0.37,-0.095,4927
0.44,-0.145,4928
0.515,-0.225,4929
0.58,-0.345,4930
0.65,-0.45,4931
0.735,-0.55,4932
0.825,-0.625,4933
0.89,-0.675,4934
0.93,-0.745,4935
0.97,-0.81,4936
1.03,-0.885,4937
1.125,-0.925,4938
1.24,-0.98,4939
1.29,-1.0,4940
1.355,-1.02,4941
1.44,-1.05,4942
1.53,-1.07,4943
1.62,-1.05,4944
1.645,-1.025,4945
1.62,-0.97,4946
1.54,-0.92,4947
1.45,-0.875,4948
1.39,-0.82,4949
1.345,-0.75,4950
1.31,-0.65,4951
1.29,-0.545,4952
1.27,-0.46,4953
1.225,-0.4,4954
1.19,-0.36,4955
1.16,-0.31,4956
1.16,-0.275,4957
1.125,-0.24,4958
1.095,-0.23,4959
1.08,-0.21,4960
1.085,-0.21,4961
1.065,-0.195,4962
1.03,-0.2,4963
0.93,-0.18,4964
0.795,-0.17,4965
0.63,-0.15,4966
0.48,-0.115,4967
0.305,-0.075,4968
0.12,0.01,4969
-0.035,0.08,4970
-0.175,0.15,4971
-0.305,0.17,4972
-0.35,0.205,4973
-0.39,0.23,4974
-0.39,0.255,4975
-0.42,0.29,4976
-0.45,0.31,4977
-0.475,0.3,4978
-0.5,0.3,4979
-0.52,0.32,4980
-0.52,0.335,4981
-0.535,0.37,4982
-0.56,0.365,4983
-0.59,0.365,4984
-0.595,0.37,4985
-0.585,0.38,4986
-0.585,0.4,4987
-0.6,0.415,4988
-0.63,0.43,4989
-0.665,0.435,4990
-0.68,0.44,4991
-0.665,0.45,4992
-0.67,0.48,4993
-0.665,0.5,4994
-0.69,0.51,4995
-0.73,0.515,4996
-0.73,0.525,4997
-0.74,0.545,4998
-0.735,0.57,4999
-0.74,0.585,5000
-0.765,0.585,5001
-0.78,0.6,5002
-0.805,0.6,5003
-0.81,0.62,5004
-0.81,0.645,5005
-0.81,0.67,5006
-0.84,0.685,5007
-0.87,0.69,5008
-0.865,0.685,5009
-0.865,0.7,5010
-0.865,0.73,5011
-0.86,0.725,5012
-0.88,0.73,5013
-0.895,0.735,5014
-0.9,0.72,5015
-0.9,0.725,5016
-0.885,0.73,5017
-0.885,0.735,5018
-0.895,0.735,5019
-0.905,0.7,5020
-0.905,0.685,5021
-0.9,0.675,5022
-0.88,0.68,5023
-0.85,0.645,5024
-0.84,0.63,5025
-0.84,0.585,5026
-0.82,0.575,5027
-0.785,0.54,5028
-0.76,0.525,5029
-0.72,0.5,5030
-0.71,0.465,5031
-0.69,0.43,5032
-0.635,0.38,5033
-0.59,0.355,5034
-0.55,0.34,5035
-0.5,0.325,5036
-0.485,0.285,5037
-0.465,0.25,5038
-0.445,0.215,5039
-0.38,0.2,5040
-0.33,0.195,5041
-0.305,0.18,5042
-0.275,0.16,5043
-0.265,0.145,5044
-0.235,0.13,5045
-0.21,0.115,5046
-0.165,0.115,5047
-0.15,0.125,5048
-0.145,0.11,5049
-0.15,0.1,5050
-0.13,0.085,5051
-0.12,0.085,5052
-0.11,0.095,5053
-0.095,0.1,5054
-0.115,0.1,5055
-0.14,0.085,5056
-0.13,0.09,5057
-0.115,0.075,5058
-0.1,0.105,5059
-0.11,0.11,5060
-0.11,0.095,5061
-0.135,0.08,5062
-0.135,0.075,5063
-0.115,0.075,5064
-0.095,0.09,5065
-0.1,0.1,5066
-0.115,0.1,5067
-0.125,0.09,5068
-0.135,0.09,5069
-0.125,0.09,5070
-0.11,0.095,5071
-0.105,0.105,5072
-0.135,0.1,5073
-0.15,0.085,5074
-0.135,0.075,5075
-0.11,0.085,5076
-0.1,0.095,5077
-0.085,0.11,5078
-0.12,0.105,5079
-0.115,0.095,5080
-0.115,0.085,5081
-0.095,0.1,5082
-0.075,0.095,5083
-0.075,0.105,5084
-0.095,0.1,5085
-0.085,0.09,5086
-0.09,0.09,5087
-0.075,0.09,5088
-0.06,0.105,5089
-0.06,0.105,5090
-0.075,0.1,5091
-0.07,0.105,5092
-0.06,0.095,5093
-0.045,0.08,5094
-0.025,0.1,5095
-0.03,0.115,5096
-0.06,0.1,5097
-0.075,0.09,5098
-0.08,0.075,5099
-0.045,0.085,5100
-0.03,0.085,5101
-0.025,0.105,5102
-0.035,0.085,5103
-0.055,0.085,5104
-0.065,0.075,5105
-0.04,0.08,5106
-0.02,0.08,5107
-0.02,0.095,5108
-0.03,0.085,5109
-0.04,0.075,5110
-0.05,0.065,5111
-0.03,0.07,5112
-0.015,0.07,5113
-0.015,0.09,5114
-0.045,0.07,5115
-0.06,0.06,5116
-0.055,0.065,5117
-0.035,0.065,5118
-0.035,0.075,5119
-0.03,0.075,5120
-0.055,0.08,5121
-0.07,0.07,5122
-0.065,0.055,5123
-0.04,0.05,5124
-0.015,0.07,5125
-0.02,0.07,5126
-0.03,0.075,5127
-0.04,0.055,5128
-0.05,0.035,5129
-0.035,0.045,5130
-0.005,0.06,5131
-0.01,0.06,5132
-0.025,0.065,5133
-0.045,0.05,5134
-0.04,0.035,5135
-0.02,0.05,5136
0.0,0.06,5137
-0.005,0.065,5138
-0.02,0.06,5139
-0.025,0.05,5140
-0.02,0.055,5141
0.005,0.05,5142
0.015,0.07,5143
0.035,0.08,5144
0.02,0.085,5145
0.025,0.085,5146
0.045,0.08,5147
0.065,0.085,5148
0.095,0.105,5149
0.105,0.115,5150
0.105,0.1,5151
0.14,0.08,5152
0.165,0.04,5153
0.175,0.015,5154
0.18,0.01,5155
0.165,0.02,5156
0.125,0.015,5157
0.11,0.01,5158
0.105,-0.01,5159
0.09,-0.005,5160
0.075,-0.005,5161
0.06,0.01,5162
0.02,0.02,5163
0.0,0.015,5164
-0.005,0.025,5165
0.0,0.015,5166
0.0,0.02,5167
-0.005,0.03,5168
-0.02,0.025,5169
-0.03,0.01,5170
-0.03,0.01,5171
-0.02,0.005,5172
0.015,0.015,5173
-0.005,0.025,5174
-0.005,0.015,5175
-0.02,-0.005,5176
-0.015,-0.005,5177
-0.005,0.0,5178
0.015,0.02,5179
0.005,0.015,5180
-0.005,0.005,5181
-0.03,-0.005,5182
-0.025,-0.025,5183
-0.01,-0.015,5184
-0.025,-0.025,5185
-0.035,-0.02,5186
-0.045,-0.025,5187
0.01,-0.03,5188
0.13,-0.055,5189
0.275,-0.125,5190
0.47,-0.195,5191
0.69,-0.26,5192
0.925,-0.315,5193
1.19,-0.35,5194
1.45,-0.41,5195
1.68,-0.425,5196
1.785,-0.375,5197
1.62,-0.285,5198
1.225,-0.2,5199
0.82,-0.175,5200
0.47,-0.165,5201
0.245,-0.155,5202
0.145,-0.145,5203
0.09,-0.12,5204
0.015,-0.085,5205
-0.055,-0.06,5206
-0.08,-0.045,5207
-0.06,-0.015,5208
-0.02,0.01,5209
-0.02,0.04,5210
-0.05,0.055,5211
-0.065,0.05,5212
-0.085,0.04,5213
-0.085,0.04,5214
-0.09,0.07,5215
-0.09,0.07,5216
-0.105,0.075,5217
-0.125,0.065,5218
-0.115,0.055,5219
-0.1,0.06,5220
-0.085,0.085,5221
-0.1,0.1,5222
-0.105,0.08,5223
-0.1,0.08,5224
-0.105,0.065,5225
-0.11,0.075,5226
-0.08,0.075,5227
-0.085,0.085,5228
-0.095,0.085,5229
-0.115,0.08,5230
-0.11,0.07,5231
-0.095,0.08,5232
-0.075,0.085,5233
-0.06,0.09,5234
-0.075,0.09,5235
-0.1,0.08,5236
-0.075,0.075,5237
-0.08,0.07,5238
-0.06,0.065,5239
-0.04,0.09,5240
-0.065,0.07,5241
-0.06,0.045,5242
-0.05,0.035,5243
-0.04,0.045,5244
-0.015,0.04,5245
-0.015,0.045,5246
-0.03,0.035,5247
-0.01,0.015,5248
0.01,0.005,5249
0.01,-0.005,5250
0.06,-0.01,5251
0.06,-0.01,5252
0.045,-0.01,5253
0.05,-0.035,5254
0.065,-0.06,5255
0.095,-0.075,5256
0.13,-0.075,5257
0.13,-0.07,5258
0.135,-0.085,5259
0.14,-0.115,5260
0.17,-0.14,5261
0.19,-0.145,5262
0.22,-0.155,5263
0.25,-0.16,5264
0.235,-0.165,5265
0.245,-0.2,5266
0.26,-0.22,5267
0.265,-0.215,5268
0.285,-0.22,5269
0.3,-0.22,5270
0.3,-0.23,5271
0.3,-0.24,5272
0.325,-0.25,5273
0.34,-0.245,5274
0.36,-0.235,5275
0.355,-0.22,5276
0.34,-0.24,5277
0.34,-0.245,5278
0.35,-0.245,5279
0.37,-0.215,5280
0.365,-0.19,5281
0.345,-0.16,5282
0.305,-0.14,5283
0.28,-0.14,5284
0.27,-0.125,5285
0.26,-0.105,5286
0.24,-0.07,5287
0.21,-0.03,5288
0.175,-0.02,5289
0.135,0.0,5290
0.125,-0.005,5291
0.115,0.025,5292
0.105,0.04,5293
0.09,0.08,5294
0.05,0.105,5295
0.01,0.09,5296
0.005,0.09,5297
0.0,0.1,5298
-0.005,0.11,5299
-0.015,0.145,5300
-0.04,0.135,5301
-0.06,0.135,5302
-0.07,0.13,5303
-0.065,0.135,5304
-0.06,0.145,5305
-0.09,0.16,5306
-0.12,0.15,5307
-0.13,0.14,5308
-0.13,0.145,5309
-0.115,0.14,5310
-0.085,0.16,5311
-0.07,0.17,5312
-0.085,0.155,5313
-0.08,0.155,5314
-0.085,0.155,5315
-0.08,0.145,5316
-0.055,0.135,5317
-0.055,0.165,5318
-0.08,0.16,5319
-0.09,0.15,5320
-0.09,0.145,5321
-0.07,0.15,5322
-0.055,0.16,5323
-0.065,0.17,5324
-0.075,0.155,5325
-0.09,0.145,5326
-0.09,0.13,5327
-0.065,0.125,5328
-0.08,0.135,5329
-0.07,0.15,5330
-0.095,0.145,5331
-0.105,0.125,5332
-0.105,0.11,5333
-0.075,0.12,5334
-0.065,0.125,5335
-0.065,0.13,5336
-0.08,0.13,5337
-0.095,0.12,5338
-0.08,0.12,5339
-0.075,0.12,5340
-0.065,0.135,5341
-0.07,0.135,5342
-0.09,0.13,5343
-0.085,0.125,5344
-0.09,0.115,5345
-0.075,0.115,5346
-0.09,0.125,5347
-0.095,0.13,5348
-0.105,0.125,5349
-0.105,0.125,5350
-0.105,0.11,5351
-0.095,0.115,5352
-0.08,0.13,5353
-0.07,0.15,5354
-0.07,0.15,5355
-0.06,0.145,5356
-0.05,0.145,5357
-0.045,0.145,5358
-0.02,0.16,5359
0.005,0.17,5360
0.005,0.16,5361
0.005,0.155,5362
0.015,0.125,5363
0.05,0.115,5364
0.065,0.13,5365
0.065,0.125,5366
0.045,0.11,5367
0.03,0.07,5368
0.04,0.055,5369
0.045,0.055,5370
0.035,0.075,5371
0.02,0.085,5372
-0.02,0.095,5373
-0.04,0.095,5374
-0.06,0.09,5375
-0.075,0.095,5376
-0.075,0.115,5377
-0.09,0.145,5378
-0.105,0.15,5379
-0.105,0.14,5380
-0.09,0.115,5381
-0.045,0.085,5382
-0.005,0.055,5383
0.035,0.025,5384
0.06,-0.02,5385
0.12,-0.075,5386
0.195,-0.15,5387
0.28,-0.185,5388
0.37,-0.245,5389
0.42,-0.31,5390
0.46,-0.415,5391
0.52,-0.515,5392
0.59,-0.6,5393
0.675,-0.68,5394
0.75,-0.73,5395
0.805,-0.785,5396
0.855,-0.855,5397
0.92,-0.935,5398
1.015,-1.01,5399
1.135,-1.05,5400
1.21,-1.075,5401
1.275,-1.095,5402
1.355,-1.15,5403
1.43,-1.195,5404
1.54,-1.225,5405
1.59,-1.21,5406
1.655,-1.16,5407
1.665,-1.105,5408
1.695,-1.09,5409
1.73,-1.09,5410
1.79,-1.115,5411
1.87,-1.085,5412
1.935,-1.02,5413
1.995,-0.925,5414
2.06,-0.82,5415
2.08,-0.755,5416
1.97,-0.685,5417
1.705,-0.565,5418
1.34,-0.405,5419
1.0,-0.26,5420
0.69,-0.13,5421
0.375,-0.02,5422
0.15,0.03,5423
-0.01,0.085,5424
-0.125,0.14,5425
-0.2,0.185,5426
-0.28,0.225,5427
-0.325,0.245,5428
-0.345,0.265,5429
-0.355,0.285,5430
-0.355,0.32,5431
-0.38,0.33,5432
-0.41,0.36,5433
-0.44,0.36,5434
-0.445,0.36,5435
-0.45,0.365,5436
-0.455,0.385,5437
-0.465,0.405,5438
-0.495,0.42,5439
-0.505,0.405,5440
-0.505,0.41,5441
-0.495,0.425,5442
-0.49,0.44,5443
-0.495,0.455,5444
-0.53,0.46,5445
-0.545,0.45,5446
-0.565,0.46,5447
-0.53,0.47,5448
-0.525,0.49,5449
-0.53,0.515,5450
-0.56,0.51,5451
-0.58,0.52,5452
-0.59,0.525,5453
-0.585,0.52,5454
-0.57,0.55,5455
-0.59,0.555,5456
-0.625,0.57,5457
-0.645,0.58,5458
-0.645,0.565,5459
-0.635,0.6,5460
-0.625,0.615,5461
-0.635,0.645,5462
-0.66,0.66,5463
-0.68,0.645,5464
-0.7,0.665,5465
-0.68,0.68,5466
-0.67,0.705,5467
-0.665,0.725,5468
-0.69,0.735,5469
-0.725,0.725,5470
-0.725,0.725,5471
-0.71,0.735,5472
-0.695,0.765,5473
-0.69,0.785,5474
-0.695,0.785,5475
-0.715,0.765,5476
-0.71,0.77,5477
-0.695,0.765,5478
-0.69,0.785,5479
-0.69,0.78,5480
-0.685,0.77,5481
-0.695,0.755,5482
-0.675,0.735,5483
-0.655,0.735,5484
-0.635,0.73,5485
-0.625,0.72,5486
-0.635,0.695,5487
-0.63,0.665,5488
-0.6,0.64,5489
-0.575,0.625,5490
-0.55,0.6,5491
-0.525,0.575,5492
-0.525,0.55,5493
-0.525,0.515,5494
-0.485,0.485,5495
-0.45,0.465,5496
-0.41,0.45,5497
-0.39,0.43,5498
-0.39,0.39,5499
-0.38,0.36,5500
-0.37,0.335,5501
-0.33,0.295,5502
-0.3,0.305,5503
-0.275,0.29,5504
-0.265,0.26,5505
-0.265,0.245,5506
-0.25,0.215,5507
-0.24,0.21,5508
-0.205,0.22,5509
-0.18,0.21,5510
-0.185,0.195,5511
-0.2,0.18,5512
-0.195,0.18,5513
-0.185,0.17,5514
-0.17,0.195,5515
-0.17,0.19,5516
-0.2,0.175,5517
-0.185,0.165,5518
-0.2,0.165,5519
-0.175,0.17,5520
-0.17,0.18,5521
-0.165,0.195,5522
-0.185,0.195,5523
-0.21,0.17,5524
-0.19,0.16,5525
-0.17,0.165,5526
-0.16,0.175,5527
-0.16,0.17,5528
-0.18,0.18,5529
-0.18,0.165,5530
-0.17,0.16,5531
-0.16,0.16,5532
-0.16,0.17,5533
-0.14,0.18,5534
-0.16,0.175,5535
-0.17,0.155,5536
-0.17,0.16,5537
-0.16,0.17,5538
-0.145,0.18,5539
-0.135,0.18,5540
-0.155,0.175,5541
-0.155,0.155,5542
-0.14,0.14,5543
-0.11,0.115,5544
-0.075,0.13,5545
-0.04,0.12,5546
-0.03,0.09,5547
-0.005,0.05,5548
0.02,-0.005,5549
0.06,-0.03,5550
0.155,-0.065,5551
0.235,-0.11,5552
0.295,-0.165,5553
0.36,-0.24,5554
0.44,-0.315,5555
0.525,-0.38,5556
0.615,-0.435,5557
0.705,-0.48,5558
0.785,-0.535,5559
0.885,-0.61,5560
0.95,-0.67,5561
1.025,-0.725,5562
1.12,-0.76,5563
1.185,-0.785,5564
1.24,-0.815,5565
1.275,-0.83,5566
1.38,-0.85,5567
1.49,-0.85,5568
1.545,-0.825,5569
1.535,-0.81,5570
1.465,-0.745,5571
1.41,-0.715,5572
1.36,-0.655,5573
1.33,-0.57,5574
1.295,-0.495,5575
1.255,-0.395,5576
1.225,-0.31,5577
1.19,-0.275,5578
1.145,-0.245,5579
1.13,-0.235,5580
1.115,-0.205,5581
1.09,-0.175,5582
1.065,-0.18,5583
1.05,-0.175,5584
1.045,-0.185,5585
0.985,-0.17,5586
0.895,-0.185,5587
0.785,-0.165,5588
0.625,-0.15,5589
0.435,-0.115,5590
0.25,-0.05,5591
0.11,0.035,5592
-0.005,0.11,5593
-0.1,0.16,5594
-0.175,0.195,5595
-0.235,0.215,5596
-0.27,0.22,5597
-0.285,0.24,5598
-0.305,0.27,5599
-0.345,0.28,5600
-0.39,0.305,5601
-0.45,0.295,5602
-0.48,0.305,5603
-0.485,0.33,5604
-0.5,0.365,5605
-0.525,0.375,5606
-0.545,0.385,5607
-0.59,0.375,5608
-0.595,0.37,5609
-0.595,0.38,5610
-0.6,0.405,5611
-0.605,0.405,5612
-0.63,0.42,5613
-0.64,0.405,5614
-0.66,0.41,5615
-0.655,0.41,5616
-0.645,0.44,5617
-0.655,0.455,5618
-0.685,0.46,5619
-0.715,0.455,5620
-0.72,0.455,5621
-0.71,0.47,5622
-0.715,0.485,5623
-0.725,0.5,5624
-0.745,0.495,5625
-0.775,0.495,5626
-0.78,0.49,5627
-0.785,0.51,5628
-0.77,0.52,5629
-0.77,0.54,5630
-0.78,0.55,5631
-0.795,0.535,5632
-0.815,0.535,5633
-0.8,0.545,5634
-0.79,0.57,5635
-0.81,0.575,5636
-0.835,0.58,5637
-0.845,0.57,5638
-0.855,0.55,5639
-0.835,0.55,5640
-0.825,0.565,5641
-0.83,0.57,5642
-0.84,0.56,5643
-0.84,0.545,5644
-0.835,0.52,5645
-0.81,0.525,5646
-0.78,0.515,5647
-0.78,0.52,5648
-0.785,0.505,5649
-0.785,0.48,5650
-0.76,0.46,5651
-0.715,0.45,5652
-0.68,0.44,5653
-0.66,0.42,5654
-0.655,0.41,5655
-0.635,0.4,5656
-0.615,0.355,5657
-0.59,0.335,5658
-0.555,0.345,5659
-0.535,0.32,5660
-0.53,0.3,5661
-0.5,0.28,5662
-0.46,0.245,5663
-0.425,0.235,5664
-0.38,0.25,5665
-0.355,0.235,5666
-0.35,0.22,5667
-0.34,0.19,5668
-0.32,0.18,5669
-0.295,0.175,5670
-0.265,0.175,5671
-0.26,0.18,5672
-0.265,0.165,5673
-0.275,0.15,5674
-0.27,0.135,5675
-0.245,0.145,5676
-0.23,0.145,5677
-0.22,0.165,5678
-0.245,0.155,5679
-0.25,0.14,5680
-0.245,0.14,5681
-0.23,0.155,5682
-0.225,0.155,5683
-0.22,0.15,5684
-0.23,0.15,5685
-0.245,0.14,5686
-0.24,0.135,5687
-0.225,0.135,5688
-0.205,0.155,5689
-0.225,0.16,5690
-0.225,0.15,5691
-0.235,0.125,5692
-0.225,0.125,5693
-0.205,0.125,5694
-0.19,0.135,5695
-0.19,0.14,5696
-0.215,0.145,5697
-0.235,0.135,5698
-0.22,0.115,5699
-0.215,0.13,5700
-0.195,0.13,5701
-0.185,0.14,5702
-0.2,0.125,5703
-0.2,0.115,5704
-0.185,0.11,5705
-0.185,0.11,5706
-0.17,0.125,5707
-0.185,0.125,5708
-0.18,0.12,5709
-0.2,0.115,5710
-0.19,0.09,5711
-0.19,0.12,5712
-0.17,0.12,5713
-0.17,0.135,5714
-0.17,0.125,5715
-0.18,0.115,5716
-0.18,0.105,5717
-0.165,0.11,5718
-0.15,0.12,5719
-0.16,0.125,5720
-0.16,0.12,5721
-0.175,0.105,5722
-0.16,0.1,5723
-0.145,0.105,5724
-0.14,0.12,5725
-0.145,0.13,5726
-0.16,0.12,5727
-0.16,0.095,5728
-0.155,0.1,5729
-0.14,0.105,5730
-0.13,0.11,5731
-0.13,0.12,5732
-0.14,0.115,5733
-0.155,0.09,5734
-0.155,0.09,5735
-0.145,0.08,5736
-0.15,0.105,5737
-0.14,0.115,5738
-0.14,0.11,5739
-0.15,0.105,5740
-0.16,0.08,5741
-0.165,0.105,5742
-0.145,0.11,5743
-0.135,0.105,5744
-0.15,0.105,5745
-0.16,0.095,5746
-0.16,0.08,5747
-0.145,0.1,5748
-0.135,0.11,5749
-0.14,0.13,5750
-0.14,0.115,5751
-0.14,0.085,5752
-0.145,0.075,5753
-0.145,0.085,5754
-0.14,0.11,5755
-0.135,0.1,5756
-0.135,0.095,5757
-0.14,0.09,5758
-0.145,0.085,5759
-0.135,0.095,5760
-0.125,0.095,5761
-0.125,0.095,5762
-0.155,0.1,5763
-0.145,0.095,5764
-0.145,0.085,5765
-0.125,0.095,5766
-0.12,0.1,5767
-0.13,0.105,5768
-0.145,0.1,5769
-0.155,0.09,5770
-0.145,0.08,5771
-0.12,0.08,5772
-0.115,0.1,5773
-0.115,0.11,5774
-0.13,0.095,5775
-0.13,0.09,5776
-0.125,0.08,5777
-0.12,0.09,5778
-0.1,0.09,5779
-0.1,0.09,5780
-0.125,0.095,5781
-0.15,0.07,5782
-0.13,0.075,5783
-0.11,0.095,5784
-0.11,0.1,5785
-0.11,0.1,5786
-0.13,0.09,5787
-0.13,0.075,5788
-0.12,0.065,5789
-0.125,0.065,5790
-0.12,0.09,5791
-0.125,0.085,5792
-0.145,0.085,5793
-0.14,0.075,5794
-0.125,0.08,5795
-0.105,0.075,5796
-0.11,0.095,5797
-0.115,0.095,5798
-0.11,0.095,5799
-0.125,0.065,5800
-0.125,0.065,5801
-0.105,0.075,5802
-0.095,0.085,5803
-0.095,0.095,5804
-0.115,0.09,5805
-0.135,0.085,5806
-0.12,0.07,5807
-0.1,0.07,5808
-0.085,0.095,5809
-0.08,0.095,5810
-0.1,0.08,5811
-0.115,0.085,5812
-0.11,0.075,5813
-0.095,0.07,5814
-0.075,0.08,5815
-0.1,0.085,5816
-0.11,0.09,5817
-0.13,0.075,5818
-0.115,0.07,5819
-0.095,0.085,5820
-0.08,0.085,5821
-0.09,0.1,5822
-0.115,0.095,5823
-0.115,0.085,5824
-0.125,0.08,5825
-0.11,0.095,5826
-0.125,0.095,5827
-0.115,0.105,5828
-0.115,0.11,5829
-0.12,0.085,5830
-0.125,0.09,5831
-0.11,0.09,5832
-0.1,0.095,5833
-0.105,0.105,5834
-0.115,0.12,5835
-0.125,0.1,5836
-0.12,0.09,5837
-0.105,0.095,5838
-0.085,0.11,5839
-0.08,0.135,5840
-0.075,0.145,5841
-0.085,0.135,5842
-0.08,0.13,5843
-0.07,0.14,5844
-0.06,0.15,5845
-0.04,0.165,5846
-0.025,0.155,5847
-0.03,0.135,5848
-0.01,0.13,5849
0.015,0.125,5850
0.035,0.105,5851
0.035,0.1,5852
0.015,0.08,5853
0.01,0.06,5854
0.01,0.06,5855
0.015,0.07,5856
0.01,0.075,5857
0.0,0.075,5858
-0.015,0.06,5859
-0.045,0.055,5860
-0.05,0.055,5861
-0.055,0.055,5862
-0.055,0.075,5863
-0.075,0.07,5864
-0.09,0.085,5865
-0.105,0.09,5866
-0.12,0.07,5867
-0.105,0.08,5868
-0.115,0.085,5869
-0.12,0.09,5870
-0.14,0.095,5871
-0.13,0.08,5872
-0.14,0.06,5873
-0.12,0.075,5874
-0.105,0.07,5875
-0.11,0.09,5876
-0.13,0.09,5877
-0.14,0.07,5878
-0.135,0.065,5879
-0.125,0.08,5880
-0.115,0.085,5881
-0.13,0.095,5882
-0.12,0.085,5883
-0.14,0.07,5884
-0.135,0.07,5885
-0.115,0.055,5886
-0.125,0.055,5887
-0.14,0.06,5888
-0.14,0.075,5889
-0.09,0.065,5890
0.025,0.03,5891
0.165,-0.025,5892
0.35,-0.09,5893
0.565,-0.14,5894
0.84,-0.17,5895
1.11,-0.185,5896
1.335,-0.22,5897
1.54,-0.245,5898
1.675,-0.235,5899
1.63,-0.19,5900
1.375,-0.115,5901
1.055,-0.095,5902
0.7,-0.075,5903
0.34,-0.055,5904
0.075,-0.035,5905
-0.085,-0.04,5906
-0.15,-0.045,5907
-0.15,-0.055,5908
-0.17,-0.025,5909
-0.18,0.015,5910
-0.185,0.055,5911
-0.17,0.075,5912
-0.18,0.095,5913
-0.18,0.085,5914
-0.195,0.1,5915
-0.185,0.105,5916
-0.19,0.12,5917
-0.2,0.12,5918
-0.22,0.12,5919
-0.255,0.115,5920
-0.25,0.11,5921
-0.245,0.105,5922
-0.225,0.125,5923
-0.235,0.13,5924
-0.24,0.13,5925
-0.265,0.12,5926
-0.26,0.105,5927
-0.245,0.11,5928
-0.24,0.12,5929
-0.225,0.13,5930
-0.24,0.12,5931
-0.235,0.11,5932
-0.225,0.125,5933
-0.22,0.125,5934
-0.21,0.13,5935
-0.225,0.12,5936
-0.23,0.105,5937
-0.245,0.105,5938
-0.23,0.09,5939
-0.24,0.085,5940
-0.21,0.1,5941
-0.215,0.11,5942
-0.22,0.1,5943
-0.235,0.085,5944
-0.23,0.065,5945
-0.21,0.07,5946
-0.2,0.08,5947
-0.195,0.07,5948
-0.2,0.07,5949
-0.22,0.065,5950
-0.205,0.055,5951
-0.18,0.055,5952
-0.17,0.065,5953
-0.17,0.075,5954
-0.185,0.06,5955
-0.19,0.045,5956
-0.185,0.03,5957
-0.155,0.04,5958
-0.14,0.035,5959
-0.135,0.045,5960
-0.145,0.03,5961
-0.135,0.01,5962
-0.12,-0.01,5963
-0.085,-0.01,5964
-0.08,-0.005,5965
-0.075,-0.015,5966
-0.08,-0.025,5967
-0.08,-0.045,5968
-0.065,-0.055,5969
-0.035,-0.06,5970
-0.025,-0.075,5971
-0.01,-0.065,5972
-0.01,-0.08,5973
-0.01,-0.1,5974
0.0,-0.11,5975
0.025,-0.115,5976
0.045,-0.11,5977
0.055,-0.115,5978
0.035,-0.125,5979
0.05,-0.155,5980
0.045,-0.16,5981
0.08,-0.155,5982
0.095,-0.15,5983
0.085,-0.145,5984
0.09,-0.15,5985
0.08,-0.16,5986
0.1,-0.175,5987
0.11,-0.16,5988
0.135,-0.15,5989
0.13,-0.145,5990
0.12,-0.135,5991
0.12,-0.14,5992
0.12,-0.14,5993
0.14,-0.11,5994
0.15,-0.095,5995
0.13,-0.08,5996
0.105,-0.07,5997
0.09,-0.065,5998
0.07,-0.06,5999
0.07,-0.04,6000
0.06,-0.005,6001
0.045,0.01,6002
0.02,0.03,6003
-0.025,0.035,6004
-0.035,0.05,6005
-0.03,0.065,6006
-0.04,0.095,6007
-0.075,0.105,6008
-0.1,0.12,6009
-0.145,0.13,6010
-0.15,0.12,6011
-0.15,0.135,6012
-0.15,0.165,6013
-0.145,0.17,6014
-0.185,0.165,6015
-0.2,0.16,6016
-0.205,0.165,6017
-0.185,0.185,6018
-0.185,0.19,6019
-0.185,0.2,6020
-0.205,0.2,6021
-0.22,0.185,6022
-0.23,0.185,6023
-0.23,0.19,6024
-0.225,0.2,6025
-0.22,0.195,6026
-0.22,0.205,6027
-0.235,0.18,6028
-0.225,0.18,6029
-0.21,0.19,6030
-0.205,0.2,6031
-0.215,0.2,6032
-0.235,0.19,6033
-0.24,0.19,6034
-0.235,0.175,6035
-0.22,0.185,6036
-0.215,0.205,6037
-0.21,0.21,6038
-0.23,0.195,6039
-0.235,0.185,6040
-0.225,0.185,6041
-0.215,0.18,6042
-0.205,0.195,6043
-0.22,0.195,6044
-0.235,0.19,6045
-0.245,0.18,6046
-0.23,0.16,6047
-0.21,0.16,6048
-0.21,0.18,6049
-0.21,0.18,6050
-0.23,0.18,6051
-0.24,0.155,6052
-0.23,0.14,6053
-0.21,0.165,6054
-0.205,0.17,6055
-0.22,0.175,6056
-0.225,0.175,6057
-0.23,0.155,6058
-0.22,0.16,6059
-0.215,0.16,6060
-0.2,0.165,6061
-0.21,0.17,6062
-0.225,0.165,6063
-0.23,0.16,6064
-0.22,0.155,6065
-0.205,0.155,6066
-0.21,0.175,6067
-0.2,0.195,6068
-0.2,0.185,6069
-0.19,0.2,6070
-0.175,0.2,6071
-0.165,0.215,6072
-0.15,0.235,6073
-0.145,0.255,6074
-0.155,0.26,6075
-0.12,0.235,6076
-0.085,0.22,6077
-0.05,0.22,6078
-0.01,0.21,6079
-0.015,0.2,6080
0.005,0.16,6081
0.03,0.11,6082
0.08,0.055,6083
0.12,0.03,6084
0.165,0.01,6085
0.185,-0.01,6086
0.215,-0.08,6087
0.265,-0.17,6088
0.335,-0.29,6089
0.43,-0.39,6090
0.49,-0.475,6091
0.54,-0.56,6092
0.575,-0.625,6093
0.625,-0.69,6094
0.675,-0.755,6095
0.76,-0.81,6096
0.835,-0.865,6097
0.91,-0.96,6098
0.975,-1.005,6099
1.035,-1.065,6100
1.085,-1.095,6101
1.16,-1.115,6102
1.245,-1.14,6103
1.315,-1.17,6104
1.35,-1.175,6105
1.355,-1.16,6106
1.345,-1.12,6107
1.315,-1.065,6108
1.255,-0.985,6109
1.195,-0.905,6110
1.125,-0.815,6111
1.06,-0.73,6112
1.03,-0.61,6113
1.01,-0.48,6114
0.98,-0.365,6115
0.94,-0.305,6116
0.875,-0.235,6117
0.84,-0.215,6118
0.81,-0.19,6119
0.795,-0.15,6120
0.78,-0.125,6121
0.73,-0.105,6122
0.71,-0.11,6123
0.69,-0.105,6124
0.685,-0.1,6125
0.645,-0.09,6126
0.6,-0.075,6127
0.495,-0.05,6128
0.36,-0.03,6129
0.18,0.025,6130
-0.005,0.085,6131
-0.165,0.165,6132
-0.315,0.25,6133
-0.43,0.305,6134
-0.535,0.34,6135
-0.595,0.37,6136
-0.635,0.375,6137
-0.64,0.4,6138
-0.645,0.425,6139
-0.66,0.44,6140
-0.7,0.455,6141
-0.735,0.455,6142
-0.745,0.455,6143
-0.745,0.46,6144
-0.75,0.485,6145
-0.76,0.51,6146
-0.785,0.51,6147
-0.81,0.5,6148
-0.8,0.505,6149
-0.8,0.52,6150
-0.8,0.54,6151
-0.82,0.57,6152
-0.83,0.57,6153
-0.85,0.56,6154
-0.84,0.58,6155
-0.84,0.585,6156
-0.85,0.605,6157
-0.85,0.635,6158
-0.875,0.635,6159
-0.905,0.65,6160
-0.905,0.66,6161
-0.895,0.67,6162
-0.9,0.7,6163
-0.915,0.715,6164
-0.935,0.735,6165
-0.945,0.735,6166
-0.975,0.75,6167
-0.965,0.765,6168
-0.96,0.795,6169
-0.98,0.815,6170
-1.0,0.82,6171
-1.005,0.825,6172
-1.01,0.83,6173
-1.005,0.85,6174
-1.015,0.865,6175
-1.02,0.88,6176
-1.05,0.885,6177
-1.065,0.88,6178
-1.065,0.88,6179
-1.055,0.9,6180
-1.05,0.91,6181
-1.07,0.93,6182
-1.1,0.915,6183
-1.095,0.89,6184
-1.09,0.875,6185
-1.07,0.87,6186
-1.065,0.87,6187
-1.06,0.865,6188
-1.06,0.825,6189
-1.055,0.81,6190
-1.05,0.78,6191
-1.03,0.755,6192
-1.015,0.74,6193
-1.0,0.73,6194
-0.985,0.695,6195
-0.955,0.66,6196
-0.92,0.615,6197
-0.885,0.605,6198
-0.865,0.59,6199
-0.845,0.57,6200
-0.815,0.525,6201
-0.8,0.48,6202
-0.77,0.45,6203
-0.73,0.43,6204
-0.695,0.42,6205
-0.665,0.41,6206
-0.65,0.375,6207
-0.62,0.335,6208
-0.575,0.32,6209
-0.535,0.325,6210
-0.515,0.33,6211
-0.515,0.33,6212
-0.515,0.325,6213
-0.515,0.295,6214
-0.495,0.285,6215
-0.47,0.295,6216
-0.455,0.31,6217
-0.45,0.3,6218
-0.46,0.3,6219
-0.475,0.295,6220
-0.475,0.285,6221
-0.46,0.29,6222
-0.455,0.295,6223
-0.455,0.305,6224
-0.465,0.3,6225
-0.465,0.285,6226
-0.465,0.27,6227
-0.47,0.28,6228
-0.455,0.285,6229
-0.445,0.29,6230
-0.45,0.285,6231
-0.465,0.27,6232
-0.465,0.26,6233
-0.445,0.29,6234
-0.455,0.29,6235
-0.475,0.3,6236
-0.495,0.285,6237
-0.505,0.27,6238
-0.495,0.28,6239
-0.48,0.28,6240
-0.48,0.29,6241
-0.505,0.305,6242
-0.525,0.31,6243
-0.53,0.315,6244
-0.53,0.315,6245
-0.525,0.315,6246
-0.515,0.335,6247
-0.515,0.34,6248
-0.5,0.33,6249
-0.49,0.315,6250
-0.46,0.325,6251
-0.42,0.355,6252
-0.38,0.39,6253
-0.35,0.385,6254
-0.34,0.385,6255
-0.36,0.36,6256
-0.355,0.355,6257
-0.33,0.35,6258
-0.31,0.345,6259
-0.295,0.325,6260
-0.29,0.325,6261
-0.285,0.3,6262
-0.265,0.285,6263
-0.235,0.29,6264
-0.24,0.295,6265
-0.25,0.305,6266
-0.27,0.295,6267
-0.275,0.28,6268
-0.26,0.28,6269
-0.23,0.28,6270
-0.205,0.28,6271
-0.205,0.28,6272
-0.21,0.265,6273
-0.23,0.26,6274
-0.24,0.245,6275
-0.225,0.255,6276
-0.205,0.265,6277
-0.185,0.275,6278
-0.18,0.265,6279
-0.155,0.235,6280
-0.145,0.215,6281
-0.125,0.21,6282
-0.12,0.21,6283
-0.1,0.165,6284
-0.085,0.14,6285
-0.08,0.1,6286
-0.04,0.04,6287
0.01,-0.015,6288
0.07,-0.08,6289
0.13,-0.16,6290
0.195,-0.275,6291
0.28,-0.405,6292
0.365,-0.515,6293
0.455,-0.615,6294
0.55,-0.67,6295
0.625,-0.75,6296
0.695,-0.84,6297
0.775,-0.915,6298
0.875,-0.995,6299
0.975,-1.055,6300
1.09,-1.08,6301
1.16,-1.105,6302
1.24,-1.14,6303
1.315,-1.18,6304
1.38,-1.185,6305
1.415,-1.16,6306
1.395,-1.11,6307
1.375,-1.045,6308
1.3,-0.985,6309
1.22,-0.945,6310
1.165,-0.85,6311
1.155,-0.73,6312
1.165,-0.595,6313
1.16,-0.495,6314
1.115,-0.415,6315
1.065,-0.37,6316
1.035,-0.315,6317
1.005,-0.25,6318
0.965,-0.2,6319
0.925,-0.165,6320
0.9,-0.12,6321
0.88,-0.09,6322
0.9,-0.065,6323
0.9,-0.06,6324
0.85,-0.03,6325
0.73,-0.02,6326
0.54,0.03,6327
0.315,0.09,6328
0.09,0.185,6329
-0.125,0.275,6330
-0.3,0.38,6331
-0.465,0.455,6332
-0.605,0.48,6333
-0.675,0.505,6334
-0.715,0.535,6335
-0.72,0.56,6336
-0.725,0.59,6337
-0.74,0.605,6338
-0.775,0.61,6339
-0.81,0.615,6340
-0.83,0.625,6341
-0.845,0.67,6342
-0.855,0.715,6343
-0.87,0.755,6344
-0.915,0.795,6345
-0.94,0.825,6346
-0.905,0.86,6347
-0.885,0.85,6348
-0.89,0.845,6349
-0.9,0.835,6350
-0.925,0.8,6351
-0.935,0.78,6352
-0.935,0.755,6353
-0.91,0.75,6354
-0.925,0.775,6355
-0.93,0.77,6356
-0.945,0.755,6357
-0.97,0.73,6358
-0.97,0.73,6359
-0.975,0.745,6360
-0.99,0.76,6361
-0.985,0.765,6362
-1.005,0.765,6363
-1.025,0.765,6364
-1.03,0.765,6365
-1.04,0.78,6366
-1.045,0.79,6367
-1.075,0.82,6368
-1.11,0.83,6369
-1.115,0.825,6370
-1.11,0.825,6371
-1.095,0.84,6372
-1.085,0.87,6373
-1.1,0.885,6374
-1.135,0.895,6375
-1.15,0.89,6376
-1.13,0.865,6377
-1.11,0.885,6378
-1.115,0.885,6379
-1.105,0.895,6380
-1.125,0.88,6381
-1.13,0.86,6382
-1.1,0.84,6383
-1.065,0.82,6384
-1.045,0.815,6385
-1.03,0.795,6386
-1.025,0.79,6387
-1.015,0.76,6388
-1.0,0.71,6389
-0.965,0.685,6390
-0.935,0.655,6391
-0.905,0.63,6392
-0.87,0.57,6393
-0.84,0.52,6394
-0.795,0.46,6395
-0.735,0.415,6396
-0.695,0.4,6397
-0.66,0.37,6398
-0.645,0.315,6399
-0.61,0.25,6400
-0.565,0.215,6401
-0.525,0.18,6402
-0.48,0.155,6403
-0.455,0.14,6404
-0.45,0.11,6405
-0.455,0.07,6406
-0.425,0.055,6407
-0.405,0.05,6408
-0.385,0.045,6409
-0.365,0.04,6410
-0.365,0.02,6411
-0.365,0.015,6412
-0.35,-0.005,6413
-0.35,0.01,6414
-0.35,0.045,6415
-0.35,0.05,6416
-0.37,0.035,6417
-0.39,0.02,6418
-0.37,0.02,6419
-0.38,0.035,6420
-0.39,0.035,6421
-0.415,0.055,6422
-0.445,0.045,6423
-0.46,0.05,6424
-0.455,0.035,6425
-0.44,0.045,6426
-0.425,0.06,6427
-0.44,0.07,6428
-0.46,0.075,6429
-0.485,0.065,6430
-0.475,0.065,6431
-0.47,0.09,6432
-0.46,0.095,6433
-0.465,0.095,6434
-0.47,0.09,6435
-0.49,0.075,6436
-0.48,0.055,6437
-0.48,0.06,6438
-0.475,0.08,6439
-0.495,0.09,6440
-0.505,0.08,6441
-0.52,0.07,6442
-0.52,0.065,6443
-0.51,0.085,6444
-0.49,0.09,6445
-0.48,0.1,6446
-0.5,0.095,6447
-0.5,0.085,6448
-0.495,0.075,6449
-0.475,0.07,6450
-0.465,0.09,6451
-0.47,0.1,6452
-0.48,0.1,6453
-0.485,0.08,6454
-0.465,0.08,6455
-0.45,0.095,6456
-0.45,0.12,6457
-0.465,0.11,6458
-0.48,0.075,6459
-0.485,0.06,6460
-0.485,0.04,6461
-0.455,0.055,6462
-0.435,0.065,6463
-0.44,0.08,6464
-0.45,0.065,6465
-0.465,0.055,6466
-0.47,0.05,6467
-0.46,0.045,6468
-0.46,0.06,6469
-0.455,0.045,6470
-0.47,0.05,6471
-0.465,0.03,6472
-0.465,0.04,6473
-0.455,0.04,6474
-0.455,0.045,6475
-0.455,0.05,6476
-0.475,0.045,6477
-0.48,0.035,6478
-0.465,0.03,6479
-0.43,0.035,6480
-0.415,0.06,6481
-0.425,0.06,6482
-0.44,0.06,6483
-0.44,0.065,6484
-0.425,0.06,6485
-0.41,0.075,6486
-0.405,0.085,6487
-0.41,0.095,6488
-0.4,0.095,6489
-0.385,0.07,6490
-0.355,0.06,6491
-0.35,0.06,6492
-0.365,0.075,6493
-0.375,0.075,6494
-0.39,0.05,6495
-0.405,0.05,6496
-0.385,0.025,6497
-0.37,0.04,6498
-0.385,0.045,6499
-0.37,0.045,6500
-0.4,0.035,6501
-0.415,0.015,6502
-0.415,0.005,6503
-0.395,0.01,6504
-0.37,0.015,6505
-0.355,-0.005,6506
-0.36,0.0,6507
-0.375,-0.015,6508
-0.39,-0.025,6509
-0.385,-0.03,6510
-0.375,-0.02,6511
-0.37,-0.03,6512
-0.375,-0.04,6513
-0.385,-0.07,6514
-0.35,-0.07,6515
-0.32,-0.08,6516
-0.31,-0.05,6517
-0.325,-0.06,6518
-0.34,-0.06,6519
-0.335,-0.055,6520
-0.3,-0.065,6521
-0.255,-0.055,6522
-0.24,-0.035,6523
-0.235,-0.03,6524
-0.255,-0.045,6525
-0.24,-0.055,6526
-0.21,-0.07,6527
-0.175,-0.075,6528
-0.125,-0.065,6529
-0.11,-0.07,6530
-0.125,-0.075,6531
-0.135,-0.11,6532
-0.13,-0.14,6533
-0.115,-0.16,6534
-0.115,-0.14,6535
-0.12,-0.145,6536
-0.15,-0.14,6537
-0.155,-0.15,6538
-0.16,-0.145,6539
-0.17,-0.14,6540
-0.17,-0.14,6541
-0.19,-0.14,6542
-0.25,-0.135,6543
-0.285,-0.14,6544
-0.275,-0.125,6545
-0.27,-0.115,6546
-0.26,-0.095,6547
-0.275,-0.09,6548
-0.305,-0.095,6549
-0.32,-0.11,6550
-0.33,-0.105,6551
-0.3,-0.095,6552
-0.305,-0.07,6553
-0.305,-0.075,6554
-0.315,-0.065,6555
-0.33,-0.075,6556
-0.325,-0.1,6557
-0.305,-0.08,6558
-0.295,-0.075,6559
-0.285,-0.07,6560
-0.3,-0.07,6561
-0.31,-0.09,6562
-0.33,-0.095,6563
-0.32,-0.085,6564
-0.3,-0.085,6565
-0.3,-0.09,6566
-0.305,-0.11,6567
-0.31,-0.14,6568
-0.305,-0.12,6569
-0.265,-0.105,6570
-0.165,-0.13,6571
-0.045,-0.195,6572
0.1,-0.31,6573
0.275,-0.39,6574
0.495,-0.48,6575
0.8,-0.5,6576
1.125,-0.51,6577
1.395,-0.52,6578
1.54,-0.48,6579
1.44,-0.39,6580
1.19,-0.285,6581
0.865,-0.17,6582
0.52,-0.095,6583
0.16,-0.08,6584
-0.13,-0.13,6585
-0.27,-0.205,6586
-0.265,-0.23,6587
-0.22,-0.22,6588
-0.205,-0.185,6589
-0.21,-0.155,6590
-0.225,-0.135,6591
-0.19,-0.15,6592
-0.185,-0.155,6593
-0.185,-0.14,6594
-0.22,-0.12,6595
-0.245,-0.11,6596
-0.27,-0.12,6597
-0.305,-0.125,6598
-0.295,-0.13,6599
-0.295,-0.125,6600
-0.295,-0.115,6601
-0.28,-0.13,6602
-0.3,-0.13,6603
-0.335,-0.15,6604
-0.325,-0.165,6605
-0.28,-0.165,6606
-0.24,-0.16,6607
-0.22,-0.17,6608
-0.19,-0.18,6609
-0.19,-0.2,6610
-0.22,-0.19,6611
-0.24,-0.17,6612
-0.235,-0.16,6613
-0.23,-0.15,6614
-0.25,-0.15,6615
-0.285,-0.155,6616
-0.305,-0.165,6617
-0.26,-0.17,6618
-0.205,-0.165,6619
-0.25,-0.15,6620
-0.38,-0.135,6621
-0.455,-0.135,6622
-0.445,-0.13,6623
-0.365,-0.14,6624
-0.32,-0.135,6625
-0.32,-0.13,6626
-0.335,-0.115,6627
-0.33,-0.15,6628
-0.31,-0.16,6629
-0.3,-0.145,6630
-0.33,-0.115,6631
-0.355,-0.125,6632
-0.365,-0.125,6633
-0.335,-0.135,6634
-0.275,-0.14,6635
-0.24,-0.15,6636
-0.2,-0.14,6637
-0.19,-0.15,6638
-0.19,-0.16,6639
-0.19,-0.18,6640
-0.185,-0.16,6641
-0.15,-0.155,6642
-0.12,-0.155,6643
-0.1,-0.16,6644
-0.095,-0.175,6645
-0.1,-0.2,6646
-0.09,-0.25,6647
-0.075,-0.265,6648
-0.055,-0.27,6649
-0.04,-0.29,6650
-0.015,-0.325,6651
0.005,-0.355,6652
0.035,-0.37,6653
0.035,-0.365,6654
0.05,-0.355,6655
0.03,-0.355,6656
0.04,-0.36,6657
0.065,-0.405,6658
0.135,-0.415,6659
0.195,-0.415,6660
0.21,-0.4,6661
0.155,-0.38,6662
0.055,-0.37,6663
0.005,-0.36,6664
0.01,-0.345,6665
0.035,-0.325,6666
0.05,-0.295,6667
0.04,-0.275,6668
0.02,-0.26,6669
0.0,-0.235,6670
0.005,-0.235,6671
-0.005,-0.19,6672
-0.015,-0.15,6673
-0.05,-0.135,6674
-0.09,-0.11,6675
-0.11,-0.1,6676
-0.145,-0.085,6677
-0.145,-0.055,6678
-0.135,-0.02,6679
-0.135,0.0,6680
-0.12,0.0,6681
-0.095,-0.005,6682
-0.055,-0.01,6683
-0.03,-0.005,6684
-0.08,0.02,6685
-0.17,0.035,6686
-0.26,0.04,6687
-0.32,0.06,6688
-0.36,0.09,6689
-0.41,0.12,6690
-0.43,0.135,6691
-0.41,0.135,6692
-0.4,0.135,6693
-0.38,0.13,6694
-0.37,0.125,6695
-0.345,0.135,6696
-0.315,0.115,6697
-0.3,0.09,6698
-0.295,0.06,6699
-0.28,0.025,6700
-0.28,0.03,6701
-0.27,0.055,6702
-0.27,0.07,6703
-0.285,0.06,6704
-0.305,0.055,6705
-0.33,0.015,6706
-0.33,0.01,6707
-0.315,0.005,6708
-0.3,0.015,6709
-0.305,0.02,6710
-0.315,0.015,6711
-0.31,0.005,6712
-0.295,0.01,6713
-0.29,0.01,6714
-0.275,0.03,6715
-0.265,0.035,6716
-0.265,0.05,6717
-0.245,0.045,6718
-0.215,0.04,6719
-0.185,0.06,6720
-0.165,0.06,6721
-0.16,0.07,6722
-0.165,0.065,6723
-0.175,0.055,6724
-0.155,0.04,6725
-0.145,0.05,6726
-0.095,0.05,6727
-0.085,0.055,6728
-0.08,0.025,6729
-0.125,-0.005,6730
-0.13,-0.025,6731
-0.075,-0.045,6732
-0.025,-0.035,6733
-0.025,-0.035,6734
-0.095,-0.02,6735
-0.175,-0.015,6736
-0.16,-0.035,6737
-0.135,-0.025,6738
-0.18,0.01,6739
-0.28,0.035,6740
-0.39,0.05,6741
-0.415,0.055,6742
-0.365,0.05,6743
-0.325,0.04,6744
-0.33,0.04,6745
-0.36,0.03,6746
-0.375,0.035,6747
-0.37,0.005,6748
-0.36,0.0,6749
-0.34,-0.015,6750
-0.34,0.005,6751
-0.345,0.025,6752
-0.375,0.04,6753
-0.4,0.035,6754
-0.405,0.03,6755
-0.38,0.035,6756
-0.365,0.065,6757
-0.375,0.105,6758
-0.385,0.105,6759
-0.37,0.11,6760
-0.315,0.065,6761
-0.29,0.025,6762
-0.26,-0.03,6763
-0.205,-0.11,6764
-0.145,-0.215,6765
-0.08,-0.33,6766
-0.005,-0.405,6767
0.14,-0.495,6768
0.38,-0.615,6769
0.61,-0.75,6770
0.855,-0.895,6771
1.14,-1.03,6772
1.495,-1.095,6773
1.84,-1.13,6774
2.105,-1.145,6775
2.25,-1.105,6776
2.19,-1.0,6777
1.9,-0.85,6778
1.485,-0.68,6779
1.015,-0.515,6780
0.535,-0.365,6781
0.16,-0.28,6782
-0.045,-0.23,6783
-0.15,-0.195,6784
-0.205,-0.155,6785
-0.26,-0.1,6786
-0.315,-0.04,6787
-0.365,0.0,6788
-0.395,0.005,6789
-0.4,0.01,6790
-0.375,0.005,6791
-0.33,0.035,6792
-0.305,0.035,6793
-0.255,0.04,6794
-0.205,0.015,6795
-0.165,0.01,6796
-0.235,0.035,6797
-0.43,0.09,6798
-0.62,0.15,6799
-0.69,0.15,6800
-0.615,0.155,6801
-0.545,0.165,6802
-0.505,0.18,6803
-0.515,0.19,6804
-0.5,0.175,6805
-0.485,0.165,6806
-0.475,0.17,6807
-0.515,0.16,6808
-0.535,0.105,6809
-0.53,0.05,6810
-0.485,0.025,6811
-0.465,0.06,6812
-0.435,0.13,6813
-0.435,0.165,6814
-0.445,0.155,6815
-0.485,0.12,6816
-0.505,0.085,6817
-0.51,0.09,6818
-0.515,0.12,6819
-0.53,0.15,6820
-0.53,0.175,6821
-0.535,0.21,6822
-0.52,0.195,6823
-0.485,0.145,6824
-0.465,0.105,6825
-0.44,0.085,6826
-0.415,0.1,6827
-0.42,0.15,6828
-0.43,0.165,6829
-0.425,0.17,6830
-0.44,0.165,6831
-0.45,0.16,6832
-0.44,0.17,6833
-0.395,0.185,6834
-0.36,0.205,6835
-0.37,0.22,6836
-0.405,0.26,6837
-0.46,0.285,6838
-0.48,0.26,6839
-0.465,0.21,6840
-0.45,0.135,6841
-0.41,0.04,6842
-0.38,0.035,6843
-0.345,0.05,6844
-0.32,0.07,6845
-0.305,0.04,6846
-0.305,0.0,6847
-0.32,0.025,6848
-0.325,0.085,6849
-0.295,0.17,6850
-0.27,0.235,6851
-0.25,0.28,6852
-0.23,0.265,6853
-0.215,0.165,6854
-0.195,0.065,6855
-0.2,-0.035,6856
-0.22,-0.03,6857
-0.215,0.01,6858
-0.19,0.075,6859
-0.145,0.07,6860
-0.12,0.025,6861
-0.12,-0.005,6862
-0.11,0.06,6863
-0.135,0.25,6864
-0.15,0.43,6865
-0.15,0.45,6866
-0.145,0.315,6867
-0.1,0.14,6868
-0.045,0.115,6869
0.02,0.255,6870
0.025,0.415,6871
0.02,0.445,6872
0.005,0.305,6873
-0.005,0.135,6874
-0.06,0.08,6875
-0.12,0.14,6876
-0.12,0.245,6877
-0.115,0.32,6878
-0.14,0.42,6879
-0.21,0.675,6880
-0.285,1.065,6881
-0.405,1.455,6882
-0.51,1.665,6883
-0.63,1.6,6884
-0.65,1.26,6885
-0.535,0.805,6886
-0.38,0.4,6887
-0.32,0.18,6888
-0.365,0.135,6889
-0.4,0.035,6890
-0.3,-0.21,6891
-0.115,-0.475,6892
-0.01,-0.56,6893
-0.09,-0.47,6894
-0.28,-0.35,6895
-0.42,-0.335,6896
-0.38,-0.36,6897
-0.25,-0.315,6898
-0.2,-0.22,6899
-0.285,-0.145,6900
-0.43,-0.035,6901
-0.485,0.185,6902
-0.445,0.47,6903
-0.36,0.665,6904
-0.325,0.61,6905
-0.32,0.295,6906
-0.27,-0.015,6907
-0.225,-0.17,6908
-0.27,-0.14,6909
-0.34,0.025,6910
-0.315,0.215,6911
-0.215,0.305,6912
-0.1,0.225,6913
-0.065,0.115,6914
-0.12,0.045,6915
-0.23,0.02,6916
-0.275,-0.005,6917
-0.155,-0.05,6918
0.015,-0.03,6919
0.08,0.04,6920
0.015,0.185,6921
-0.04,0.255,6922
0.035,0.135,6923
0.22,-0.145,6924
0.455,-0.435,6925
0.65,-0.57,6926
0.7,-0.605,6927
0.67,-0.64,6928
0.655,-0.715,6929
0.705,-0.725,6930
0.785,-0.59,6931
0.875,-0.47,6932
0.98,-0.56,6933
1.19,-0.86,6934
1.41,-1.18,6935
1.575,-1.335,6936
1.62,-1.33,6937
1.645,-1.25,6938
1.625,-1.2,6939
1.65,-1.25,6940
1.765,-1.365,6941
1.97,-1.475,6942
2.01,-1.465,6943
1.815,-1.37,6944
1.57,-1.23,6945
1.495,-1.08,6946
1.485,-0.935,6947
1.495,-0.75,6948
1.425,-0.6,6949
1.38,-0.515,6950
1.305,-0.455,6951
1.205,-0.41,6952
1.085,-0.36,6953
0.99,-0.3,6954
1.025,-0.29,6955
1.07,-0.335,6956
1.085,-0.36,6957
1.06,-0.36,6958
1.025,-0.3,6959
0.96,-0.25,6960
0.83,-0.25,6961
0.615,-0.25,6962
0.36,-0.25,6963
0.145,-0.21,6964
-0.045,-0.12,6965
-0.16,0.025,6966
-0.14,0.175,6967
-0.06,0.255,6968
-0.025,0.245,6969
-0.025,0.19,6970
-0.08,0.17,6971
-0.21,0.215,6972
-0.32,0.265,6973
-0.315,0.245,6974
-0.21,0.225,6975
-0.12,0.275,6976
-0.08,0.31,6977
-0.175,0.33,6978
-0.34,0.34,6979
-0.46,0.345,6980
-0.5,0.36,6981
-0.46,0.36,6982
-0.315,0.33,6983
-0.185,0.34,6984
-0.125,0.385,6985
-0.105,0.455,6986
-0.105,0.475,6987
-0.185,0.43,6988
-0.32,0.425,6989
-0.445,0.465,6990
-0.55,0.515,6991
-0.575,0.54,6992
-0.475,0.535,6993
-0.325,0.53,6994
-0.265,0.54,6995
-0.25,0.585,6996
-0.295,0.63,6997
-0.39,0.67,6998
-0.525,0.68,6999
-0.595,0.67,7000
-0.48,0.695,7001
-0.345,0.75,7002
-0.35,0.765,7003
-0.46,0.75,7004
-0.5,0.74,7005
-0.565,0.725,7006
-0.67,0.735,7007
-0.735,0.765,7008
-0.755,0.795,7009
-0.755,0.79,7010
-0.69,0.785,7011
-0.57,0.76,7012
-0.52,0.7,7013
-0.5,0.685,7014
-0.46,0.715,7015
-0.37,0.74,7016
-0.355,0.73,7017
-0.4,0.66,7018
-0.47,0.615,7019
-0.55,0.61,7020
-0.655,0.605,7021
-0.665,0.575,7022
-0.535,0.505,7023
-0.375,0.44,7024
-0.28,0.365,7025
-0.24,0.305,7026
-0.23,0.32,7027
-0.195,0.32,7028
-0.15,0.295,7029
-0.095,0.26,7030
-0.045,0.205,7031
-0.02,0.15,7032
-0.03,0.12,7033
-0.055,0.1,7034
-0.085,0.07,7035
-0.085,0.02,7036
-0.035,-0.015,7037
0.025,-0.04,7038
0.035,-0.045,7039
0.015,-0.08,7040
-0.025,-0.125,7041
-0.035,-0.16,7042
0.0,-0.2,7043
0.04,-0.24,7044
0.055,-0.235,7045
0.06,-0.215,7046
0.035,-0.2,7047
0.0,-0.205,7048
-0.02,-0.205,7049
-0.04,-0.205,7050
-0.065,-0.19,7051
-0.075,-0.165,7052
-0.06,-0.15,7053
-0.075,-0.175,7054
-0.065,-0.195,7055
-0.065,-0.175,7056
-0.08,-0.13,7057
-0.105,-0.095,7058
-0.12,-0.095,7059
-0.13,-0.095,7060
-0.12,-0.09,7061
-0.08,-0.04,7062
-0.065,-0.015,7063
-0.075,-0.025,7064
-0.115,-0.045,7065
-0.145,-0.06,7066
-0.135,-0.045,7067
-0.12,-0.04,7068
-0.125,-0.035,7069
-0.15,-0.03,7070
-0.13,-0.02,7071
-0.105,-0.05,7072
-0.075,-0.07,7073
-0.1,-0.085,7074
-0.13,-0.065,7075
-0.155,-0.06,7076
-0.165,-0.055,7077
-0.16,-0.07,7078
-0.145,-0.06,7079
-0.11,-0.035,7080
-0.105,0.005,7081
-0.12,0.005,7082
-0.14,-0.03,7083
-0.155,-0.055,7084
-0.14,-0.075,7085
-0.13,-0.065,7086
-0.11,-0.04,7087
-0.11,-0.02,7088
-0.11,-0.025,7089
-0.12,-0.02,7090
-0.105,-0.01,7091
-0.085,0.02,7092
-0.06,0.055,7093
-0.05,0.07,7094
-0.055,0.09,7095
-0.06,0.105,7096
-0.055,0.13,7097
-0.05,0.165,7098
-0.075,0.2,7099
-0.09,0.235,7100
-0.085,0.265,7101
-0.08,0.26,7102
-0.065,0.285,7103
-0.07,0.315,7104
-0.08,0.355,7105
-0.075,0.395,7106
-0.07,0.4,7107
-0.08,0.42,7108
-0.07,0.415,7109
-0.045,0.45,7110
-0.035,0.475,7111
-0.04,0.485,7112
-0.045,0.475,7113
-0.035,0.465,7114
0.005,0.455,7115
0.03,0.47,7116
0.065,0.485,7117
0.08,0.485,7118
0.095,0.495,7119
0.13,0.46,7120
0.14,0.435,7121
0.135,0.395,7122
0.135,0.33,7123
0.125,0.25,7124
0.1,0.135,7125
0.085,0.05,7126
0.08,-0.03,7127
0.09,-0.075,7128
0.095,-0.09,7129
0.085,-0.095,7130
0.04,-0.11,7131
-0.01,-0.135,7132
-0.035,-0.13,7133
-0.02,-0.11,7134
-0.04,-0.07,7135
-0.045,-0.075,7136
-0.065,-0.09,7137
-0.085,-0.13,7138
